r,omega,theta,phi,rho,mass
0.0001,-3.412023005428146,0.0,0.7853981633974483,0.0,0.0
0.0101,-3.412023170477324,0.0,0.7853991580539812,0.0,4.318058088979693e-08
0.0201,-3.412023659274303,0.0,0.7853991632524555,0.0,3.4033992520338323e-07
0.0301,-3.412024471804938,0.0,0.7853991650471487,0.0,1.1429421548132608e-06
0.040100000000000004,-3.4120256081086655,0.0,0.7853991662520442,0.0,2.7024513908778777e-06
0.050100000000000006,-3.412027068241466,0.0,0.7853991669936078,0.0,5.270331753489209e-06
0.0601,-3.412028852274626,0.0,0.7853991675525978,0.0,9.09804736117575e-06
0.07010000000000001,-3.4120309602934853,0.0,0.7853991682336141,0.0,1.443706232982758e-05
0.0801,-3.4120333923976878,0.0,0.7853991689684283,0.0,2.153884077231608e-05
0.0901,-3.4120361487090416,0.0,0.7853991697312012,0.0,3.065484680379032e-05
0.10010000000000001,-3.412039229365205,0.0,0.7853991705187632,0.0,4.203654453534661e-05
0.1101,-3.412042634519109,0.0,0.7853991713302142,0.0,5.593539807349681e-05
0.1201,-3.412046364338957,0.0,0.7853991721669225,0.0,7.260287152016838e-05
0.1301,-3.4120504190082266,0.0,0.7853991730325254,0.0,9.22904289727043e-05
0.1401,-3.4120547987256673,0.0,0.7853991739329291,0.0,0.00011524953452386313
0.15009999999999998,-3.412059503705301,0.0,0.7853991748763084,0.0,0.00014173165226181897
0.1601,-3.412064534176425,0.0,0.7853991758731073,0.0,0.0001719882462701616
0.1701,-3.4120698903836053,0.0,0.7853991769360381,0.0,0.0002062707806278961
0.18009999999999998,-3.412075572586685,0.0,0.7853991780800824,0.0,0.0002448307194094434
0.1901,-3.4120815810610376,0.0,0.7853991793220997,0.0,0.000287919526681346
0.2001,-3.4120879161149755,0.0,0.7853991806482427,0.0,0.0003357886662838519
0.21009999999999998,-3.4120945780618714,0.0,0.7853991820429264,0.0,0.000388689602196126
0.2201,-3.4121015672202373,0.0,0.7853991835059063,0.0,0.0004468737985431127
0.2301,-3.4121088839265385,0.0,0.7853991850369769,0.0,0.0005105927194337175
0.24009999999999998,-3.412116528535191,0.0,0.7853991866359711,0.0,0.0005800978289608075
0.2501,-3.412124501418563,0.0,0.7853991883027605,0.0,0.000655640591201212
0.2601,-3.4121328029669744,0.0,0.7853991900372552,0.0,0.0007374724702157206
0.2701,-3.4121414335886966,0.0,0.785399191839404,0.0,0.000825844930049086
0.2801,-3.4121503937099527,0.0,0.7853991937091941,0.0,0.0009210094347300206
0.29009999999999997,-3.412159683774918,0.0,0.7853991956466516,0.0,0.0010232174482711993
0.3001,-3.4121693042457184,0.0,0.785399197651841,0.0,0.0011327204346692596
0.3101,-3.4121792556024335,0.0,0.7853991997248654,0.0,0.0012497698579047988
0.3201,-3.412189538343092,0.0,0.7853992018658664,0.0,0.0013746171819423764
0.3301,-3.412200152983677,0.0,0.7853992040750247,0.0,0.0015075138707305136
0.3401,-3.4122111000581214,0.0,0.7853992063525589,0.0,0.001648711388201692
0.3501,-3.4122223801183105,0.0,0.7853992086987267,0.0,0.0017984611982723568
0.3601,-3.412233993734081,0.0,0.785399211113824,0.0,0.0019570147648429125
0.3701,-3.412245941493222,0.0,0.7853992135981859,0.0,0.0021246235517977277
0.3801,-3.4122582240014743,0.0,0.7853992161521854,0.0,0.00230153902300513
0.3901,-3.412270841882529,0.0,0.7853992187762345,0.0,0.0024880126423174106
0.4001,-3.412283795778031,0.0,0.7853992214707839,0.0,0.0026842958735708205
0.4101,-3.412297086347575,0.0,0.7853992242363224,0.0,0.002890640180585572
0.4201,-3.412310714268709,0.0,0.785399227073378,0.0,0.003107297027165841
0.4301,-3.4123246802369316,0.0,0.7853992299825168,0.0,0.003334517877099764
0.4401,-3.4123389849656935,0.0,0.7853992329643438,0.0,0.003572554194159438
0.4501,-3.4123536291863976,0.0,0.7853992360195025,0.0,0.0038216574421009236
0.4601,-3.4123686136483973,0.0,0.785399239148675,0.0,0.004082079084664241
0.4701,-3.412383939118999,0.0,0.7853992423525821,0.0,0.0043540705855733735
0.48009999999999997,-3.412399606383461,0.0,0.7853992456319829,0.0,0.004637883408536262
0.4901,-3.4124156162449912,0.0,0.7853992489876754,0.0,0.004933769017244814
0.5001,-3.412431969524752,0.0,0.7853992524204962,0.0,0.0052419788753749
0.5101,-3.4124486670618546,0.0,0.7853992559313203,0.0,0.005562764446586344
0.5201,-3.412465709713365,0.0,0.7853992595210614,0.0,0.005896377194522937
0.5301,-3.4124830983542984,0.0,0.7853992631906717,0.0,0.006243068582812432
0.5401,-3.4125008338776235,0.0,0.7853992669411421,0.0,0.0066030900750665405
0.5501,-3.4125189171942596,0.0,0.7853992707735024,0.0,0.006976693134880937
0.5601,-3.412537349233078,0.0,0.7853992746888202,0.0,0.007364129225835258
0.5701,-3.4125561309409016,0.0,0.7853992786882026,0.0,0.007765649811493104
0.5801,-3.412575263282506,0.0,0.7853992827727946,0.0,0.008181506355402027
0.5901,-3.412594747240617,0.0,0.7853992869437803,0.0,0.008611950321093558
0.6001,-3.4126145838159125,0.0,0.7853992912023819,0.0,0.009057233172083174
0.6101,-3.412634774027023,0.0,0.7853992955498607,0.0,0.009517606371870319
0.6201,-3.4126553189105304,0.0,0.7853992999875163,0.0,0.0099933213839384
0.6301,-3.412676219520968,0.0,0.7853993045166869,0.0,0.010484629671754779
0.6401,-3.4126974769308207,0.0,0.7853993091387496,0.0,0.01099178269877079
0.6501,-3.412719092230525,0.0,0.7853993138551196,0.0,0.01151503192842172
0.6601,-3.4127410665284703,0.0,0.7853993186672511,0.0,0.012054628824126822
0.6701,-3.4127634009509964,0.0,0.7853993235766367,0.0,0.01261082484928931
0.6801,-3.4127860977705304,0.0,0.7853993285852803,0.0,0.013183871466400607
0.6901,-3.4128091603708177,0.0,0.7853993336949529,0.0,0.01377402013705549
0.7001000000000001,-3.412832589687829,0.0,0.7853993389058099,0.0,0.01438152232477291
0.7101,-3.4128563866170087,0.0,0.7853993442180184,0.0,0.015006629493091641
0.7201,-3.4128805520951486,0.0,0.7853993496318009,0.0,0.015649593105505413
0.7301,-3.412905087100391,0.0,0.7853993551474362,0.0,0.016310664625462865
0.7401,-3.4129299926522285,0.0,0.7853993607652587,0.0,0.016990095516367584
0.7501,-3.4129552698115018,0.0,0.785399366485659,0.0,0.01768813724157809
0.7601,-3.4129809196804013,0.0,0.785399372309083,0.0,0.018405041264407836
0.7701,-3.4130069434024675,0.0,0.7853993782360328,0.0,0.019141059048125214
0.7801,-3.4130333421625902,0.0,0.7853993842670665,0.0,0.019896442055953548
0.7901,-3.4130601171870083,0.0,0.7853993904027975,0.0,0.0206714417510711
0.8001,-3.413087269743311,0.0,0.7853993966438957,0.0,0.021466309596611062
0.8101,-3.4131148011404355,0.0,0.7853994029910865,0.0,0.02228129705566157
0.8201,-3.413142712728671,0.0,0.7853994094451511,0.0,0.02311665559126569
0.8301000000000001,-3.413171005899653,0.0,0.7853994160069268,0.0,0.023972636666421417
0.8401,-3.413199682086369,0.0,0.7853994226773064,0.0,0.024849491744081686
0.8501,-3.4132287427631547,0.0,0.7853994294572391,0.0,0.025747472287154384
0.8601,-3.413258189445696,0.0,0.7853994363477292,0.0,0.02666682975850231
0.8701,-3.413288023691028,0.0,0.7853994433498376,0.0,0.027607815620943204
0.8801,-3.4133182470975347,0.0,0.7853994504646806,0.0,0.028570681337249743
0.8901,-3.4133488613049514,0.0,0.7853994576934304,0.0,0.029555678370149545
0.9001,-3.4133798679943603,0.0,0.7853994650373153,0.0,0.030563058182325152
0.9101,-3.4134112688881952,0.0,0.7853994724976191,0.0,0.03159307223641404
0.9201,-3.4134430657502386,0.0,0.7853994800756818,0.0,0.03264597199500865
0.9301,-3.4134752603856224,0.0,0.7853994877728989,0.0,0.033722008920656306
0.9401,-3.413507854640828,0.0,0.7853994955907221,0.0,0.03482143447585932
0.9501000000000001,-3.413540850403687,0.0,0.7853995035306586,0.0,0.03594450012307491
0.9601,-3.4135742496033785,0.0,0.7853995115942717,0.0,0.03709145732471521
0.9701,-3.4136080542104335,0.0,0.7853995197831806,0.0,0.03826255754314735
0.9801,-3.4136422662367316,0.0,0.7853995280990601,0.0,0.039458052240693355
0.9901,-3.4136768877355013,0.0,0.7853995365436411,0.0,0.04067819287963017
1.0001,-3.413711920801321,0.0,0.7853995451187102,0.0,0.041923230922189705
1.0101,-3.413747367570119,0.0,0.7853995538261098,0.0,0.0431934178305588
1.0201,-3.4137832302191726,0.0,0.7853995626677385,0.0,0.044489005066879216
1.0301,-3.4138195109671083,0.0,0.7853995716455502,0.0,0.04581024409324766
1.0401,-3.4138562120739033,0.0,0.7853995807615551,0.0,0.04715738637171578
1.0501,-3.4138933358408825,0.0,0.7853995900178192,0.0,0.04853068336429015
1.0601,-3.413930884610722,0.0,0.7853995994164641,0.0,0.04993038653293227
1.0701,-3.4139688607674463,0.0,0.7853996089596674,0.0,0.05135674733955859
1.0801,-3.4140072667364296,0.0,0.7853996186496628,0.0,0.052810017246040494
1.0901,-3.414046104984396,0.0,0.7853996284887392,0.0,0.0542904477142043
1.1001,-3.4140853780194194,0.0,0.7853996384792421,0.0,0.055798290205831255
1.1101,-3.414125088390921,0.0,0.7853996486235725,0.0,0.05733379618265755
1.1201,-3.414165238689675,0.0,0.7853996589241871,0.0,0.058897217106374314
1.1301,-3.4142058315478017,0.0,0.7853996693835986,0.0,0.060488804438627586
1.1401000000000001,-3.414246869638773,0.0,0.7853996800043759,0.0,0.06210880964101837
1.1501000000000001,-3.4142883556774097,0.0,0.7853996907891431,0.0,0.06375748417510259
1.1601,-3.4143302924198817,0.0,0.7853997017405805,0.0,0.0654350795023911
1.1701,-3.4143726826637093,0.0,0.7853997128614243,0.0,0.06714184708434971
1.1801,-3.414415529247761,0.0,0.7853997241544666,0.0,0.06887803838239917
1.1901,-3.414458835052256,0.0,0.785399735622555,0.0,0.07064390485791512
1.2001,-3.4145026029987626,0.0,0.7853997472685934,0.0,0.07243969797222817
1.2101,-3.4145468360501985,0.0,0.7853997590955412,0.0,0.07426566918662388
1.2201,-3.41459153721083,0.0,0.7853997711064138,0.0,0.07612206996234269
1.2301,-3.414636709526275,0.0,0.7853997833042825,0.0,0.07800915176058006
1.2401,-3.4146823560834987,0.0,0.7853997956922744,0.0,0.07992716604248624
1.2501,-3.4147284800108175,0.0,0.7853998082735724,0.0,0.08187636426916661
1.2601,-3.414775084477896,0.0,0.7853998210514153,0.0,0.08385699790168134
1.2701,-3.414822172695749,0.0,0.7853998340290976,0.0,0.08586931840104557
1.2801,-3.4148697479167405,0.0,0.7853998472099701,0.0,0.08791357722822943
1.2901,-3.414917813434584,0.0,0.785399860597439,0.0,0.08999002584415788
1.3001,-3.414966372584343,0.0,0.7853998741949666,0.0,0.09209891570971093
1.3101,-3.41501542874243,0.0,0.7853998880060707,0.0,0.09424049828572342
1.3201,-3.4150649853266066,0.0,0.7853999020343255,0.0,0.0964150250329852
1.3301,-3.4151150457959845,0.0,0.7853999162833606,0.0,0.09862274741224106
1.3401,-3.415165613651025,0.0,0.7853999307568617,0.0,0.10086391688419065
1.3501,-3.4152166924335385,0.0,0.7853999454585702,0.0,0.10313878490948862
1.3601,-3.415268285726685,0.0,0.7853999603922833,0.0,0.10544760294874454
1.3701,-3.4153203971549746,0.0,0.7853999755618545,0.0,0.10779062246252291
1.3801,-3.415373030384265,0.0,0.7853999909711925,0.0,0.11016809491134316
1.3901000000000001,-3.4154261891217654,0.0,0.7854000066242623,0.0,0.11258027175567968
1.4001000000000001,-3.415479877116034,0.0,0.7854000225250848,0.0,0.11502740445596177
1.4101,-3.4155340981569777,0.0,0.7854000386777362,0.0,0.1175097444725736
1.4201,-3.415588856075854,0.0,0.7854000550863492,0.0,0.12002754326585449
1.4301,-3.415644154745269,0.0,0.7854000717551121,0.0,0.12258105229609845
1.4401,-3.4156999980791785,0.0,0.7854000886882688,0.0,0.12517052302355455
1.4501,-3.4157563900328882,0.0,0.7854001058901195,0.0,0.12779620690842683
1.4601,-3.4158133346030533,0.0,0.7854001233650201,0.0,0.13045835541087414
1.4701,-3.4158708358276773,0.0,0.7854001411173821,0.0,0.13315721999101032
1.4801,-3.4159288977861144,0.0,0.785400159151673,0.0,0.13589305210890423
1.4901,-3.4159875245990685,0.0,0.7854001774724164,0.0,0.13866610322457953
1.5001,-3.4160467204285916,0.0,0.7854001960841914,0.0,0.1414766247980149
1.5101,-3.416106489478087,0.0,0.7854002149916331,0.0,0.14432486828914398
1.5201,-3.4161668360013895,0.0,0.7854002341994527,0.0,0.14721108515785356
1.5301,-3.4162277701300825,0.0,0.7854002537250808,0.0,0.15013552686275214
1.5401,-3.4162893006468757,0.0,0.7854002735822286,0.0,0.15309844486233978
1.5501,-3.4163514312393044,0.0,0.7854002937731887,0.0,0.156100090615993
1.5601,-3.4164141657649316,0.0,0.785400314300601,0.0,0.15914071558301002
1.5701,-3.4164775082513503,0.0,0.785400335167453,0.0,0.1622205712226107
1.5801,-3.416541462896181,0.0,0.7854003563770791,0.0,0.1653399089939367
1.5901,-3.416606034067072,0.0,0.7854003779331611,0.0,0.16849898035605132
1.6001,-3.4166712263017023,0.0,0.7854003998397282,0.0,0.1716980367679396
1.6101,-3.4167370443077782,0.0,0.7854004221011566,0.0,0.17493732968850825
1.6201,-3.4168034929630338,0.0,0.7854004447221699,0.0,0.17821711057658574
1.6301,-3.4168705773152337,0.0,0.7854004677078389,0.0,0.18153763089092215
1.6401000000000001,-3.416938302582169,0.0,0.7854004910635817,0.0,0.18489914209018937
1.6501000000000001,-3.417006674151661,0.0,0.7854005147951637,0.0,0.18830189563298091
1.6601000000000001,-3.4170756975815584,0.0,0.7854005389086975,0.0,0.19174614297781203
1.6701,-3.4171453785997397,0.0,0.7854005634106431,0.0,0.1952321355831196
1.6801,-3.4172157231041105,0.0,0.7854005883078073,0.0,0.19876012490726247
1.6901,-3.4172867371626063,0.0,0.7854006136073449,0.0,0.20233036240852087
1.7001,-3.41735842701319,0.0,0.7854006393167572,0.0,0.20594309954509687
1.7101,-3.4174307990638537,0.0,0.7854006654438933,0.0,0.2095985877751143
1.7201,-3.4175038598926184,0.0,0.7854006919969494,0.0,0.21329707855661856
1.7301,-3.4175776162475326,0.0,0.7854007189844688,0.0,0.21703882334757685
1.7401,-3.4176520750466746,0.0,0.7854007464153423,0.0,0.22082407360587808
1.7501,-3.4177272433781503,0.0,0.7854007742988077,0.0,0.22465308078933277
1.7601,-3.4178031285000943,0.0,0.7854008026444503,0.0,0.22852609635567328
1.7701,-3.4178797378406705,0.0,0.7854008314622026,0.0,0.23244337176255353
1.7801,-3.4179570789980707,0.0,0.7854008607623444,0.0,0.23640515846754928
1.7901,-3.418035159740515,0.0,0.7854008905555026,0.0,0.24041170792815791
1.8001,-3.4181139880062528,0.0,0.7854009208526512,0.0,0.2444632716017985
1.8101,-3.418193571903562,0.0,0.7854009516651121,0.0,0.24856010094581193
1.8201,-3.418273919710748,0.0,0.7854009830045539,0.0,0.2527024474174606
1.8301,-3.4183550398761464,0.0,0.7854010148829925,0.0,0.25689056247392883
1.8401,-3.4184369410181197,0.0,0.7854010473127915,0.0,0.2611246975723225
1.8501,-3.4185196319250606,0.0,0.785401080306661,0.0,0.2654051041696692
1.8601,-3.418603121555389,0.0,0.7854011138776592,0.0,0.2697320337229183
1.8701,-3.4186874190375534,0.0,0.7854011480391909,0.0,0.2741057376889408
1.8801,-3.4187725336700323,0.0,0.7854011828050087,0.0,0.2785264675245295
1.8901000000000001,-3.4188584749213313,0.0,0.7854012181892118,0.0,0.2829944746863988
1.9001000000000001,-3.4189452524299853,0.0,0.7854012542062474,0.0,0.28751001063118486
1.9101000000000001,-3.4190328760045574,0.0,0.7854012908709094,0.0,0.2920733268154455
1.9201,-3.419121355623639,0.0,0.7854013281983391,0.0,0.2966846746956602
1.9301,-3.4192107014358513,0.0,0.7854013662040252,0.0,0.30134430572823034
1.9401,-3.4193009237598426,0.0,0.7854014049038036,0.0,0.30605247136947883
1.9501,-3.4193920330842906,0.0,0.7854014443138575,0.0,0.3108094230756504
1.9601,-3.419484040067901,0.0,0.7854014844507171,0.0,0.31561541230291135
1.9701,-3.4195769555394087,0.0,0.7854015253312603,0.0,0.3204706905073498
1.9801,-3.419670790497577,0.0,0.7854015669727118,0.0,0.3253755091449755
1.9901,-3.4197655561111975,0.0,0.7854016093926438,0.0,0.3303301196717199
2.0001,-3.41986126371909,0.0,0.7854016526089759,0.0,0.33533477354343627
2.0101000000000004,-3.4199579248301037,0.0,0.7854016966399746,0.0,0.34038972221589947
2.0201000000000002,-3.4200555511231165,0.0,0.7854017415042539,0.0,0.3454952171448058
2.0301000000000005,-3.4201541544470335,0.0,0.785401787220775,0.0,0.35065150978577414
2.0401000000000002,-3.4202537468207894,0.0,0.7854018338088464,0.0,0.3558588515943439
2.0501,-3.420354340433348,0.0,0.7854018812881239,0.0,0.36111749402597704
2.0601000000000003,-3.4204559476437,0.0,0.7854019296786103,0.0,0.36642768853605723
2.0701,-3.4205585809808663,0.0,0.7854019790006561,0.0,0.3717896865798891
2.0801000000000003,-3.4206622531438953,0.0,0.7854020292749586,0.0,0.37720373961269993
2.0901,-3.4207669770018643,0.0,0.7854020805225626,0.0,0.3826700990896378
2.1001000000000003,-3.4208727655938795,0.0,0.7854021327648602,0.0,0.3881890164657733
2.1101,-3.420979632129075,0.0,0.7854021860235906,0.0,0.393760743196098
2.1201000000000003,-3.4210875899866138,0.0,0.7854022403208403,0.0,0.399385530735526
2.1301,-3.421196652715688,0.0,0.7854022956790433,0.0,0.40506363053889205
2.1401000000000003,-3.421306834035517,0.0,0.7854023521209804,0.0,0.4107952940609539
2.1501,-3.4214181498158096,0.0,0.7854024096758838,0.0,0.41658077275675354
2.1601000000000004,-3.421530631544681,0.0,0.785402468419948,0.0,0.42242031808373676
2.1701,-3.421644296305495,0.0,0.7854025283829494,0.0,0.42831418149591144
2.1801000000000004,-3.421759157485109,0.0,0.7854025895829402,0.0,0.43426261444642633
2.1901,-3.4218752292445727,0.0,0.7854026520402075,0.0,0.4402658683884562
2.2001000000000004,-3.421992526519122,0.0,0.785402715777274,0.0,0.44632419477520374
2.2101,-3.422111065018184,0.0,0.7854027808188971,0.0,0.4524378450598978
2.2201000000000004,-3.4222308612253722,0.0,0.7854028471920694,0.0,0.45860707069579504
2.2301,-3.4223519323984917,0.0,0.7854029149260188,0.0,0.46483212313617833
2.2401000000000004,-3.422474296569535,0.0,0.785402984052208,0.0,0.47111325383435837
2.2501,-3.4225979725446845,0.0,0.7854030546043352,0.0,0.47745071424367197
2.2601000000000004,-3.4227229799043104,0.0,0.7854031266183336,0.0,0.483844755817484
2.2701000000000002,-3.422849339002973,0.0,0.7854032001323712,0.0,0.4902956300091851
2.2801000000000005,-3.422977070969421,0.0,0.7854032751868515,0.0,0.4968035882721942
2.2901000000000002,-3.4231061977065917,0.0,0.7854033518244131,0.0,0.503368882059956
2.3001000000000005,-3.4232367418916128,0.0,0.7854034300899296,0.0,0.5099917628259435
2.3101000000000003,-3.4233687269757995,0.0,0.7854035100305098,0.0,0.5166724820236553
2.3201,-3.4235021771846563,0.0,0.7854035916954974,0.0,0.5234112911066181
2.3301000000000003,-3.423637117517877,0.0,0.7854036751364717,0.0,0.5302084415283856
2.3401,-3.423773573749344,0.0,0.7854037604072466,0.0,0.5370641847425375
2.3501000000000003,-3.42391157242713,0.0,0.7854038475638713,0.0,0.5439787722026815
2.3601,-3.424051140873494,0.0,0.7854039366646303,0.0,0.5509524553624517
2.3701000000000003,-3.424192307184887,0.0,0.785404027770043,0.0,0.55798548567551
2.3801,-3.4243351002319464,0.0,0.7854041209428642,0.0,0.5650781145955441
2.3901000000000003,-3.4244795496595,0.0,0.7854042162480834,0.0,0.5722305935762699
2.4001,-3.4246256858865642,0.0,0.7854043137529256,0.0,0.5794431740714293
2.4101000000000004,-3.424773540106345,0.0,0.7854044135268508,0.0,0.5867161075347922
2.4201,-3.424923144286236,0.0,0.785404515641554,0.0,0.5940496454201545
2.4301000000000004,-3.425074531167821,0.0,0.7854046201709655,0.0,0.6014440391813403
2.4401,-3.4252277342668718,0.0,0.7854047271912507,0.0,0.608899540272199
2.4501000000000004,-3.42538278787335,0.0,0.7854048367808099,0.0,0.6164164001466089
2.4601,-3.4255397270514063,0.0,0.7854049490202788,0.0,0.6239948702584739
2.4701000000000004,-3.425698587639379,0.0,0.7854050639925282,0.0,0.6316352020617259
2.4801,-3.4258594062497973,0.0,0.7854051817826638,0.0,0.6393376470103227
2.4901000000000004,-3.426022220269378,0.0,0.7854053024780268,0.0,0.6471024565582504
2.5001,-3.4261870678590265,0.0,0.785405426168193,0.0,0.6549298821595209
2.5101000000000004,-3.426353987953839,0.0,0.7854055529449736,0.0,0.6628201752681742
2.5201000000000002,-3.426523020263099,0.0,0.7854056829024152,0.0,0.6707735873382759
2.5301000000000005,-3.42669420527028,0.0,0.7854058161367992,0.0,0.6787903698239206
2.5401000000000002,-3.426867584233043,0.0,0.7854059527466419,0.0,0.6868707741792277
2.5501000000000005,-3.42704319918324,0.0,0.7854060928326952,0.0,0.6950150518583456
2.5601000000000003,-3.4272210929269105,0.0,0.785406236497946,0.0,0.703223454315448
2.5701,-3.427401314583535,0.0,0.7854063838701593,0.0,0.7114962330069612
2.5801000000000003,-3.4275839468503513,0.0,0.7854065352097294,0.0,0.7198336394016397
2.5901,-3.427769038647503,0.0,0.7854066906333668,0.0,0.728235924952874
2.6001000000000003,-3.4279566340175096,0.0,0.7854068502365346,0.0,0.7367033411116365
