r,omega,theta,phi,rho,m
0.0101,0.5,3.141592653589793,-1.5707963267948966,1.5707963267948966,1.715486666903329e-11
0.0201,0.4999983512787293,3.141592653589793,-1.5707843267948967,1.5707963267948966,1.7502335363246119e-07
0.030100000000000002,0.49999831863078337,3.141592653589793,-1.5707840891711342,1.5707963267948966,8.680948612092489e-07
0.040100000000000004,0.49999666974980334,3.141592653589793,-1.57077208779693,1.5707963267948966,2.4224212682682413e-06
0.050100000000000006,0.4999944677523048,3.141592653589793,-1.5707560605619468,1.5707963267948966,5.181187087158564e-06
0.06010000000000001,0.4999917152921427,3.141592653589793,-1.5707360265725618,1.5707963267948966,9.487673138099747e-06
0.07010000000000001,0.49998841290632284,3.141592653589793,-1.570711989539509,1.5707963267948966,1.568526150983716e-05
0.0801,0.49998456077655856,3.141592653589793,-1.570683950554403,1.5707963267948966,2.4117457754670713e-05
0.0901,0.4999801589830765,3.141592653589793,-1.5706519099305156,1.5707963267948966,3.512791310453085e-05
0.1001,0.49997520756830593,3.141592653589793,-1.5706158676646886,1.5707963267948966,4.906044665617583e-05
0.11009999999999999,0.4999697065581554,3.141592653589793,-1.5705758235916507,1.5707963267948966,6.625906751361802e-05
0.12009999999999998,0.4999636559705367,3.141592653589793,-1.5705317774458423,1.5707963267948966,8.706799688032213e-05
0.1301,0.499957055819243,3.141592653589793,-1.5704837288895548,1.5707963267948966,0.00011183169009458183
0.1401,0.49994990611588985,3.141592653589793,-1.5704316775270188,1.5707963267948966,0.0001408948586016934
0.1501,0.49994220687096114,3.141592653589793,-1.5703756229120016,1.5707963267948966,0.00017460249185659402
0.16010000000000002,0.4999339580944067,3.141592653589793,-1.5703155645521587,1.5707963267948966,0.00021329987915062818
0.17010000000000003,0.49992515979600144,3.141592653589793,-1.570251501911653,1.5707963267948966,0.0002573326313560811
0.18010000000000004,0.49991581198556945,3.141592653589793,-1.5701834344127987,1.5707963267948966,0.00030704670258208317
0.19010000000000005,0.49990591467312956,3.141592653589793,-1.5701113614371347,1.5707963267948966,0.00036278841173544864
0.20010000000000006,0.4998954678689919,3.141592653589793,-1.5700352823261459,1.5707963267948966,0.00042490446397996673
0.21010000000000006,0.4998844715838244,3.141592653589793,-1.569955196381766,1.5707963267948966,0.0004937419720876133
0.22010000000000007,0.49987292582869874,3.141592653589793,-1.5698711028667356,1.5707963267948966,0.0005696484776750996
0.23010000000000008,0.499860830615124,3.141592653589793,-1.569783001004868,1.5707963267948966,0.0006529719723191187
0.2401000000000001,0.4998481859550704,3.141592653589793,-1.5696908899812472,1.5707963267948966,0.0007440609185435898
0.2501000000000001,0.49983499186098734,3.141592653589793,-1.569594768942385,1.5707963267948966,0.0008432642706721412
0.2601000000000001,0.49982124834581637,3.141592653589793,-1.5694946369963452,1.5707963267948966,0.0009509314955390047
0.2701000000000001,0.49980695542300174,3.141592653589793,-1.5693904932128455,1.5707963267948966,0.0010674125930514278
0.2801000000000001,0.4997921131064979,3.141592653589793,-1.5692823366233455,1.5707963267948966,0.0011930581165966393
0.29010000000000014,0.4997767214107756,3.141592653589793,-1.5691701662211213,1.5707963267948966,0.0013282191932863269
0.30010000000000014,0.4997607803508267,3.141592653589793,-1.5690539809613335,1.5707963267948966,0.0014732475440315113
0.31010000000000015,0.4997442899421679,3.141592653589793,-1.5689337797610887,1.5707963267948966,0.0016284955034406225
0.32010000000000016,0.4997272502008436,3.141592653589793,-1.5688095614994966,1.5707963267948966,0.0017943160395334932
0.33010000000000017,0.49970966114342835,3.141592653589793,-1.5686813250177245,1.5707963267948966,0.0019710627732639086
0.3401000000000002,0.499691522787029,3.141592653589793,-1.5685490691190502,1.5707963267948966,0.0021590899978432554
0.3501000000000002,0.49967283514928595,3.141592653589793,-1.5684127925689129,1.5707963267948966,0.002358752697857725
0.3601000000000002,0.4996535982483747,3.141592653589793,-1.5682724940949635,1.5707963267948966,0.002570406568171429
0.3701000000000002,0.4996338121030066,3.141592653589793,-1.5681281723871148,1.5707963267948966,0.0027944080326076895
0.3801000000000002,0.4996134767324302,3.141592653589793,-1.567979826097592,1.5707963267948966,0.0030311142624006634
0.3901000000000002,0.4995925921564313,3.141592653589793,-1.5678274538409827,1.5707963267948966,0.003280883194409364
0.40010000000000023,0.4995711583953343,3.141592653589793,-1.5676710541942886,1.5707963267948966,0.003544073549086026
0.41010000000000024,0.49954917547000194,3.141592653589793,-1.5675106256969764,1.5707963267948966,0.0038210448481906605
0.42010000000000025,0.49952664340183633,3.141592653589793,-1.5673461668510307,1.5707963267948966,0.004112157432243537
0.43010000000000026,0.49950356221277886,3.141592653589793,-1.5671776761210074,1.5707963267948966,0.0044177724777072
0.44010000000000027,0.49947993192531076,3.141592653589793,-1.567005151934088,1.5707963267948966,0.004738252013889533
0.4501000000000003,0.4994557525624531,3.141592653589793,-1.566828592680135,1.5707963267948966,0.005073958939559246
0.4601000000000003,0.4994310241477672,3.141592653589793,-1.5666479967117493,1.5707963267948966,0.005425257039265052
0.4701000000000003,0.4994057467053544,3.141592653589793,-1.566463362344327,1.5707963267948966,0.0057925109993496576
0.4801000000000003,0.4993799202598568,3.141592653589793,-1.5662746878561193,1.5707963267948966,0.006176086423649593
0.4901000000000003,0.4993535448364566,3.141592653589793,-1.5660819714882934,1.5707963267948966,0.006576349848871748
0.5001000000000003,0.4993266204608769,3.141592653589793,-1.5658852114449933,1.5707963267948966,0.006993668759637367
0.5101000000000003,0.4992991471593811,3.141592653589793,-1.565684405893404,1.5707963267948966,0.007428411603184113
0.5201000000000003,0.49927112495877346,3.141592653589793,-1.5654795529638161,1.5707963267948966,0.007880947803716684
0.5301000000000003,0.49924255388639877,3.141592653589793,-1.5652706507496914,1.5707963267948966,0.008351647776396307
0.5401000000000004,0.49921343397014245,3.141592653589793,-1.565057697307731,1.5707963267948966,0.008840882940959319
0.5501000000000004,0.49918376523843067,3.141592653589793,-1.5648406906579446,1.5707963267948966,0.009349025734954879
0.5601000000000004,0.49915354772023013,3.141592653589793,-1.5646196287837209,1.5707963267948966,0.009876449626591722
0.5701000000000004,0.4991227814450481,3.141592653589793,-1.5643945096318999,1.5707963267948966,0.010423529127183709
0.5801000000000004,0.4990914664429326,3.141592653589793,-1.564165331112847,1.5707963267948966,0.010990639803183787
0.5901000000000004,0.499059602744472,3.141592653589793,-1.5639320911005279,1.5707963267948966,0.011578158287795813
0.6001000000000004,0.49902719038079507,3.141592653589793,-1.5636947874325866,1.5707963267948966,0.01218646229215355
0.6101000000000004,0.4989942293835712,3.141592653589793,-1.5634534179104234,1.5707963267948966,0.012815930616055973
0.6201000000000004,0.49896071978500994,3.141592653589793,-1.5632079802992753,1.5707963267948966,0.013466943158247889
0.6301000000000004,0.49892666161786126,3.141592653589793,-1.5629584723282985,1.5707963267948966,0.014139880926234681
0.6401000000000004,0.4988920549154152,3.141592653589793,-1.562704891690652,1.5707963267948966,0.014835126045619878
0.6501000000000005,0.4988568997115021,3.141592653589793,-1.5624472360435833,1.5707963267948966,0.015553061768954022
0.6601000000000005,0.4988211960404922,3.141592653589793,-1.5621855030085152,1.5707963267948966,0.016294072484083197
0.6701000000000005,0.4987849439372957,3.141592653589793,-1.5619196901711359,1.5707963267948966,0.017058543721985397
0.6801000000000005,0.49874814343736285,3.141592653589793,-1.5616497950814885,1.5707963267948966,0.017846862164082742
0.6901000000000005,0.49871079457668344,3.141592653589793,-1.5613758152540649,1.5707963267948966,0.018659415649017373
0.7001000000000005,0.49867289739178705,3.141592653589793,-1.5610977481678996,1.5707963267948966,0.019496593178878727
0.7101000000000005,0.4986344519197429,3.141592653589793,-1.5608155912666661,1.5707963267948966,0.020358784924869654
0.7201000000000005,0.4985954581981597,3.141592653589793,-1.560529341958776,1.5707963267948966,0.021246382232398768
0.7301000000000005,0.4985559162651854,3.141592653589793,-1.5602389976174782,1.5707963267948966,0.02215977762558612
0.7401000000000005,0.4985158261595074,3.141592653589793,-1.5599445555809615,1.5707963267948966,0.023099364811169254
0.7501000000000005,0.4984751879203521,3.141592653589793,-1.559646013152458,1.5707963267948966,0.0240655386817964
0.7601000000000006,0.4984340015874851,3.141592653589793,-1.5593433676003505,1.5707963267948966,0.02505869531869348
0.7701000000000006,0.49839226720121077,3.141592653589793,-1.559036616158279,1.5707963267948966,0.026079231993691374
0.7801000000000006,0.4983499848023724,3.141592653589793,-1.5587257560252514,1.5707963267948966,0.027127547170599748
0.7901000000000006,0.4983071544323521,3.141592653589793,-1.558410784365756,1.5707963267948966,0.02820404050591357
0.8001000000000006,0.49826377613307027,3.141592653589793,-1.5580916983098745,1.5707963267948966,0.029309112848838224
0.8101000000000006,0.498219849946986,3.141592653589793,-1.5577684949533994,1.5707963267948966,0.030443166240619
0.8201000000000006,0.4981753759170966,3.141592653589793,-1.557441171357952,1.5707963267948966,0.0316066039131606
0.8301000000000006,0.4981303540869376,3.141592653589793,-1.5571097245511019,1.5707963267948966,0.03279983028692199
0.8401000000000006,0.49808478450058263,3.141592653589793,-1.5567741515264912,1.5707963267948966,0.034023250968071905
0.8501000000000006,0.49803866720264317,3.141592653589793,-1.5564344492439584,1.5707963267948966,0.0352772727448901
0.8601000000000006,0.4979920022382686,3.141592653589793,-1.5560906146296654,1.5707963267948966,0.03656230358339914
0.8701000000000007,0.4979447896531459,3.141592653589793,-1.5557426445762272,1.5707963267948966,0.0378787526222116
0.8801000000000007,0.4978970294934997,3.141592653589793,-1.555390535942843,1.5707963267948966,0.03922703016657714
0.8901000000000007,0.49784872180609174,3.141592653589793,-1.5550342855554304,1.5707963267948966,0.04060754768161381
0.9001000000000007,0.49779986663822123,3.141592653589793,-1.5546738902067616,1.5707963267948966,0.042020717784707985
0.9101000000000007,0.49775046403772444,3.141592653589793,-1.5543093466566014,1.5707963267948966,0.043466954237066785
0.9201000000000007,0.4977005140529746,3.141592653589793,-1.5539406516318484,1.5707963267948966,0.04494667193440699
0.9301000000000007,0.4976500167328817,3.141592653589793,-1.5535678018266783,1.5707963267948966,0.04646028689676417
0.9401000000000007,0.49759897212689236,3.141592653589793,-1.5531907939026899,1.5707963267948966,0.048008216257405596
0.9501000000000007,0.4975473802849898,3.141592653589793,-1.5528096244890526,1.5707963267948966,0.049590878250830334
0.9601000000000007,0.4974952412576935,3.141592653589793,-1.5524242901826575,1.5707963267948966,0.051208692199839874
0.9701000000000007,0.4974425550960592,3.141592653589793,-1.5520347875482707,1.5707963267948966,0.05286207850166228
0.9801000000000007,0.4973893218516787,3.141592653589793,-1.5516411131186887,1.5707963267948966,0.054551458613112946
0.9901000000000008,0.4973355415766796,3.141592653589793,-1.5512432633948965,1.5707963267948966,0.056277255034774744
1.0001000000000007,0.4972812143237252,3.141592653589793,-1.5508412348462295,1.5707963267948966,0.05803989129418024
1.0101000000000007,0.49722634014601436,3.141592653589793,-1.550435023910536,1.5707963267948966,0.05983979192797856
1.0201000000000007,0.4971709190972815,3.141592653589793,-1.550024626994344,1.5707963267948966,0.0616773824630693
1.0301000000000007,0.49711495123179605,3.141592653589793,-1.54961004047303,1.5707963267948966,0.06355308939668582
1.0401000000000007,0.49705843660436266,3.141592653589793,-1.5491912606909903,1.5707963267948966,0.06546734017541
1.0501000000000007,0.49700137527032073,3.141592653589793,-1.5487682839618162,1.5707963267948966,0.0674205631731007
1.0601000000000007,0.4969437672855445,3.141592653589793,-1.5483411065684707,1.5707963267948966,0.06941318766771759
1.0701000000000007,0.4968856127064427,3.141592653589793,-1.5479097247634688,1.5707963267948966,0.07144564381702248
1.0801000000000007,0.49682691158995845,3.141592653589793,-1.54747413476906,1.5707963267948966,0.0735183626331397
1.0901000000000007,0.49676766399356903,3.141592653589793,-1.5470343327774148,1.5707963267948966,0.07563177595595726
1.1001000000000007,0.49670786997528577,3.141592653589793,-1.546590314950813,1.5707963267948966,0.07778631642535026
1.1101000000000008,0.49664752959365377,3.141592653589793,-1.5461420774218355,1.5707963267948966,0.0799824174522082
1.1201000000000008,0.4965866429077519,3.141592653589793,-1.5456896162935596,1.5707963267948966,0.08222051318824734
1.1301000000000008,0.49652520997719246,3.141592653589793,-1.5452329276397558,1.5707963267948966,0.08450103849458973
1.1401000000000008,0.496463230862121,3.141592653589793,-1.5447720075050895,1.5707963267948966,0.08682442890908998
1.1501000000000008,0.49640070562321625,3.141592653589793,-1.5443068519053245,1.5707963267948966,0.08919112061239107
1.1601000000000008,0.49633763432168976,3.141592653589793,-1.5438374568275304,1.5707963267948966,0.09160155039269045
1.1701000000000008,0.49627401701928586,3.141592653589793,-1.543363818230293,1.5707963267948966,0.09405615560919754
1.1801000000000008,0.4962098537782814,3.141592653589793,-1.542885932043927,1.5707963267948966,0.09655537415426366
1.1901000000000008,0.4961451446614856,3.141592653589793,-1.5424037941706945,1.5707963267948966,0.09909964441416574
1.2001000000000008,0.4960798897322398,3.141592653589793,-1.5419174004850231,1.5707963267948966,0.10168940522852483
1.2101000000000008,0.49601408905441735,3.141592653589793,-1.541426746833731,1.5707963267948966,0.1043250958483404
1.2201000000000009,0.4959477426924232,3.141592653589793,-1.5409318290362526,1.5707963267948966,0.10700715589262177
1.2301000000000009,0.495880850711194,3.141592653589793,-1.5404326428848694,1.5707963267948966,0.10973602530359784
1.2401000000000009,0.4958134131761977,3.141592653589793,-1.5399291841449434,1.5707963267948966,0.11251214430048617
1.2501000000000009,0.4957454301534334,3.141592653589793,-1.5394214485551547,1.5707963267948966,0.11533595333180292
1.2601000000000009,0.4956769017094312,3.141592653589793,-1.5389094318277414,1.5707963267948966,0.11820789302619476
1.270100000000001,0.4956078279112518,3.141592653589793,-1.5383931296487448,1.5707963267948966,0.12112840414177435
1.280100000000001,0.4955382088264865,3.141592653589793,-1.5378725376782565,1.5707963267948966,0.12409792751394084
1.290100000000001,0.49546804452325705,3.141592653589793,-1.5373476515506703,1.5707963267948966,0.127116904001667
1.300100000000001,0.4953973350702151,3.141592653589793,-1.5368184668749378,1.5707963267948966,0.13018577443223472
1.310100000000001,0.49532608053654237,3.141592653589793,-1.536284979234827,1.5707963267948966,0.1333049795444008
1.320100000000001,0.4952542809919501,3.141592653589793,-1.5357471841891848,1.5707963267948966,0.136474959929975
1.330100000000001,0.4951819365066792,3.141592653589793,-1.5352050772722041,1.5707963267948966,0.13969615597379273
1.340100000000001,0.49510904715149956,3.141592653589793,-1.5346586539936944,1.5707963267948966,0.14296900779206448
1.350100000000001,0.4950356129977104,3.141592653589793,-1.5341079098393555,1.5707963267948966,0.14629395516908472
1.360100000000001,0.49496163411713945,3.141592653589793,-1.5335528402710563,1.5707963267948966,0.14967143749228326
1.370100000000001,0.4948871105821433,3.141592653589793,-1.5329934407271175,1.5707963267948966,0.15310189368560173
1.380100000000001,0.4948120424656068,3.141592653589793,-1.5324297066225971,1.5707963267948966,0.15658576214117878
1.390100000000001,0.4947364298409428,3.141592653589793,-1.5318616333495818,1.5707963267948966,0.1601234806493275
1.400100000000001,0.49466027278209224,3.141592653589793,-1.5312892162774812,1.5707963267948966,0.16371548632678878
1.410100000000001,0.4945835713635237,3.141592653589793,-1.530712450753326,1.5707963267948966,0.16736221554324512
1.420100000000001,0.49450632566023317,3.141592653589793,-1.5301313321020726,1.5707963267948966,0.17106410384607884
1.430100000000001,0.49442853574774387,3.141592653589793,-1.5295458556269088,1.5707963267948966,0.17482158588336022
1.440100000000001,0.494350201702106,3.141592653589793,-1.5289560166095664,1.5707963267948966,0.17863509532505029
1.450100000000001,0.4942713235998965,3.141592653589793,-1.528361810310637,1.5707963267948966,0.18250506478240422
1.460100000000001,0.4941919015182189,3.141592653589793,-1.5277632319698917,1.5707963267948966,0.18643192572556114
1.470100000000001,0.4941119355347029,3.141592653589793,-1.5271602768066077,1.5707963267948966,0.19041610839930706
1.480100000000001,0.49403142572750425,3.141592653589793,-1.5265529400198958,1.5707963267948966,0.19445804173699788
1.490100000000001,0.4939503721753045,3.141592653589793,-1.5259412167890356,1.5707963267948966,0.19855815327262963
1.500100000000001,0.49386877495731085,3.141592653589793,-1.5253251022738135,1.5707963267948966,0.20271686905104452
1.510100000000001,0.4937866341532557,3.141592653589793,-1.524704591614866,1.5707963267948966,0.20693461353626064
1.5201000000000011,0.49370394984339644,3.141592653589793,-1.5240796799340284,1.5707963267948966,0.2112118095179149
1.5301000000000011,0.49362072210851543,3.141592653589793,-1.523450362334686,1.5707963267948966,0.21554887801580874
1.5401000000000011,0.49353695102991946,3.141592653589793,-1.5228166339021332,1.5707963267948966,0.2199462381825467
1.5501000000000011,0.49345263668943967,3.141592653589793,-1.5221784897039348,1.5707963267948966,0.22440430720425916
1.5601000000000012,0.49336777916943125,3.141592653589793,-1.521535924790294,1.5707963267948966,0.22892350019940086
1.5701000000000012,0.49328237855277324,3.141592653589793,-1.5208889341944238,1.5707963267948966,0.23350423011561694
1.5801000000000012,0.49319643492286813,3.141592653589793,-1.5202375129329255,1.5707963267948966,0.2381469076246705
1.5901000000000012,0.49310994836364175,3.141592653589793,-1.51958165600617,1.5707963267948966,0.2428519410154248
1.6001000000000012,0.4930229189595429,3.141592653589793,-1.5189213583986854,1.5707963267948966,0.247619736084875
1.6101000000000012,0.4929353467955433,3.141592653589793,-1.5182566150795505,1.5707963267948966,0.252450696027225
1.6201000000000012,0.492847231957137,3.141592653589793,-1.5175874210027913,1.5707963267948966,0.25734522132100524
1.6301000000000012,0.49275857453034033,3.141592653589793,-1.5169137711077851,1.5707963267948966,0.2623037096142296
1.6401000000000012,0.4926693746016917,3.141592653589793,-1.5162356603196692,1.5707963267948966,0.26732655560758833
1.6501000000000012,0.492579632258251,3.141592653589793,-1.5155530835497533,1.5707963267948966,0.27241415093567684
1.6601000000000012,0.4924893475875999,3.141592653589793,-1.5148660356959407,1.5707963267948966,0.27756688404626056
1.6701000000000013,0.49239852067784085,3.141592653589793,-1.5141745116431518,1.5707963267948966,0.2827851400775762
1.6801000000000013,0.49230715161759747,3.141592653589793,-1.5134785062637546,1.5707963267948966,0.2880693007336725
1.6901000000000013,0.4922152404960139,3.141592653589793,-1.5127780144180012,1.5707963267948966,0.29341974415779265
1.7001000000000013,0.4921227874027546,3.141592653589793,-1.512073030954469,1.5707963267948966,0.29883684480380396
1.7101000000000013,0.49202979242800415,3.141592653589793,-1.5113635507105079,1.5707963267948966,0.3043209733056791
1.7201000000000013,0.4919362556624669,3.141592653589793,-1.5106495685126935,1.5707963267948966,0.3098724963450364
