r,omega,theta,phi,rho,mass
0.0001,-3.412023005428146,0.0,0.0,0.0,0.0
0.0101,-3.4120231720628844,0.0,0.0,0.0,2.3475385998922825e-11
0.0201,-3.4120236601443406,0.0,0.0,0.0,1.8502781097010966e-10
0.0301,-3.4120244724436355,0.0,0.0,0.0,6.213668522912563e-10
0.040100000000000004,-3.4120256084680953,0.0,0.0,0.0,1.46920107577707e-09
0.050100000000000006,-3.4120270682355525,0.0,0.0,0.0,2.8652385141121647e-09
0.0601,-3.4120288517520256,0.0,0.0,0.0,4.946185973338919e-09
0.07010000000000001,-3.4120309590145683,0.0,0.0,0.0,7.848747840256029e-09
0.0801,-3.4120333900128177,0.0,0.0,0.0,1.170962607633637e-08
0.0901,-3.4120361447289933,0.0,0.0,0.0,1.666552021772701e-08
0.10010000000000001,-3.412039223137899,0.0,0.0,0.0,2.2853127375249215e-08
0.1101,-3.412042625227126,0.0,0.0,0.0,3.040911828196121e-08
0.1201,-3.4120463510274712,0.0,0.0,0.0,3.947014214622359e-08
0.1301,-3.412050400541127,0.0,0.0,0.0,5.017291030235128e-08
0.1401,-3.4120547737687117,0.0,0.0,0.0,6.265412770348043e-08
0.15009999999999998,-3.4120594707110192,0.0,0.0,0.0,7.705049005119101e-08
0.1601,-3.4120644913690197,0.0,0.0,0.0,9.349868379550714e-08
0.1701,-3.4120698357438615,0.0,0.0,0.0,1.1213538613489671e-07
0.18009999999999998,-3.4120755038368684,0.0,0.0,0.0,1.330972650162716e-07
0.1901,-3.412081495649541,0.0,0.0,0.0,1.5652097913498776e-07
0.2001,-3.412087811183557,0.0,0.0,0.0,1.8254317793484496e-07
0.21009999999999998,-3.41209445044077,0.0,0.0,0.0,2.1130050160808682e-07
0.2201,-3.4121014134232115,0.0,0.0,0.0,2.429295810954013e-07
0.2301,-3.412108700133088,0.0,0.0,0.0,2.775670380859198e-07
0.24009999999999998,-3.4121163105727836,0.0,0.0,0.0,3.153494850172182e-07
0.2501,-3.4121242447448594,0.0,0.0,0.0,3.564135250753157e-07
0.2601,-3.4121325026520526,0.0,0.0,0.0,4.008957521946762e-07
0.2701,-3.4121410842972772,0.0,0.0,0.0,4.489327510582068e-07
0.2801,-3.4121499896836234,0.0,0.0,0.0,5.006610970972591e-07
0.29009999999999997,-3.4121592188143586,0.0,0.0,0.0,5.562173564916282e-07
0.3001,-3.412168771692927,0.0,0.0,0.0,6.157380861695537e-07
0.3101,-3.412178648322949,0.0,0.0,0.0,6.793598338077189e-07
0.3201,-3.412188848708222,0.0,0.0,0.0,7.472191378312506e-07
0.3301,-3.4121993728527196,0.0,0.0,0.0,8.194525274137205e-07
0.3401,-3.412210220760592,0.0,0.0,0.0,8.961965224771431e-07
0.3501,-3.412221392436167,0.0,0.0,0.0,9.77587633691978e-07
0.3601,-3.4122328878839476,0.0,0.0,0.0,1.063762362477127e-06
0.3701,-3.412244707108615,0.0,0.0,0.0,1.1548572009999384e-06
0.3801,-3.4122568501150266,0.0,0.0,0.0,1.2510086321762031e-06
0.3901,-3.412269316908215,0.0,0.0,0.0,1.3523531296701552e-06
0.4001,-3.4122821074933913,0.0,0.0,0.0,1.4590271578944739e-06
0.4101,-3.4122952218806564,0.0,0.0,0.0,1.5711668177386471e-06
0.4201,-3.412308660240956,0.0,0.0,0.0,1.6888962242413177e-06
0.4301,-3.412322422654564,0.0,0.0,0.0,1.8123465673815337e-06
0.4401,-3.4123365091171953,0.0,0.0,0.0,1.9416554078314413e-06
0.4501,-3.412350919624792,0.0,0.0,0.0,2.076960258527646e-06
0.4601,-3.4123656541735174,0.0,0.0,0.0,2.218398584671212e-06
0.4701,-3.4123807127597603,0.0,0.0,0.0,2.366107803727663e-06
0.48009999999999997,-3.412396095380133,0.0,0.0,0.0,2.5202252854269785e-06
0.4901,-3.4124118020314707,0.0,0.0,0.0,2.6808883517636026e-06
0.5001,-3.412427832710835,0.0,0.0,0.0,2.848234276996433e-06
0.5101,-3.412444187415509,0.0,0.0,0.0,3.022400287648829e-06
0.5201,-3.412460866143001,0.0,0.0,0.0,3.2035235625086065e-06
0.5301,-3.412477868891044,0.0,0.0,0.0,3.3917412326280416e-06
0.5401,-3.412495195657592,0.0,0.0,0.0,3.58719038132387e-06
0.5501,-3.412512846440827,0.0,0.0,0.0,3.7900080441772837e-06
0.5601,-3.4125308212391516,0.0,0.0,0.0,4.000331209033937e-06
0.5701,-3.412549120051194,0.0,0.0,0.0,4.218296816003939e-06
0.5801,-3.4125677428758063,0.0,0.0,0.0,4.444041757461858e-06
0.5901,-3.412586689712064,0.0,0.0,0.0,4.677702878046729e-06
0.6001,-3.4126059605592665,0.0,0.0,0.0,4.919416974662035e-06
0.6101,-3.412625555416938,0.0,0.0,0.0,5.169320796475724e-06
0.6201,-3.412645474284826,0.0,0.0,0.0,5.427551044920198e-06
0.6301,-3.4126657171629025,0.0,0.0,0.0,5.6942443736923245e-06
0.6401,-3.412686284051362,0.0,0.0,0.0,5.9695373887534255e-06
0.6501,-3.412707174950625,0.0,0.0,0.0,6.25356664832928e-06
0.6601,-3.4127283898613343,0.0,0.0,0.0,6.546468662910133e-06
0.6701,-3.4127499287843577,0.0,0.0,0.0,6.84837989525068e-06
0.6801,-3.4127717917207865,0.0,0.0,0.0,7.1594367603700805e-06
0.6901,-3.412793978671936,0.0,0.0,0.0,7.479775625551949e-06
0.7001000000000001,-3.412816489639346,0.0,0.0,0.0,7.809532810344364e-06
0.7101,-3.412839324624779,0.0,0.0,0.0,8.148844586559854e-06
0.7201,-3.412862483630222,0.0,0.0,0.0,8.49784717827542e-06
0.7301,-3.4128859666578872,0.0,0.0,0.0,8.856676761832512e-06
0.7401,-3.412909773710209,0.0,0.0,0.0,9.225469465837037e-06
0.7501,-3.412933904789847,0.0,0.0,0.0,9.60436137115937e-06
0.7601,-3.412958359899683,0.0,0.0,0.0,9.993488510934333e-06
0.7701,-3.4129831390428254,0.0,0.0,0.0,1.039298687056122e-05
0.7801,-3.4130082422226047,0.0,0.0,0.0,1.0802992387703773e-05
0.7901,-3.4130336694425756,0.0,0.0,0.0,1.1223640952290196e-05
0.8001,-3.413059420706517,0.0,0.0,0.0,1.1655068406513152e-05
0.8101,-3.4130854960184314,0.0,0.0,0.0,1.2097410544829768e-05
0.8201,-3.4131118953825466,0.0,0.0,0.0,1.2550803113961624e-05
0.8301000000000001,-3.413138618803312,0.0,0.0,0.0,1.3015381812894754e-05
0.8401,-3.413165666285403,0.0,0.0,0.0,1.3491282292879654e-05
0.8501,-3.4131930378337185,0.0,0.0,0.0,1.3978640157431302e-05
0.8601,-3.413220733453381,0.0,0.0,0.0,1.4477590962329093e-05
0.8701,-3.413248753149736,0.0,0.0,0.0,1.4988270215616914e-05
0.8801,-3.413277096928356,0.0,0.0,0.0,1.5510813377603093e-05
0.8901,-3.4133057647950333,0.0,0.0,0.0,1.6045355860860426e-05
0.9001,-3.4133347567557877,0.0,0.0,0.0,1.659203303022617e-05
0.9101,-3.413364072816861,0.0,0.0,0.0,1.715098020280202e-05
0.9201,-3.41339371298472,0.0,0.0,0.0,1.7722332647954156e-05
0.9301,-3.4134236772660547,0.0,0.0,0.0,1.8306225587313207e-05
0.9401,-3.413453965667779,0.0,0.0,0.0,1.8902794194774255e-05
0.9501000000000001,-3.413484578197032,0.0,0.0,0.0,1.9512173596496853e-05
0.9601,-3.413515514861175,0.0,0.0,0.0,2.0134498870904985e-05
0.9701,-3.4135467756677946,0.0,0.0,0.0,2.0769905048687138e-05
0.9801,-3.4135783606247005,0.0,0.0,0.0,2.141852711279623e-05
0.9901,-3.413610269739927,0.0,0.0,0.0,2.208049999844963e-05
1.0001,-3.413642503021732,0.0,0.0,0.0,2.275595859312919e-05
1.0101,-3.4136750604785977,0.0,0.0,0.0,2.34450377365812e-05
1.0201,-3.41370794211923,0.0,0.0,0.0,2.4147872220816417e-05
1.0301,-3.413741147952558,0.0,0.0,0.0,2.4864596790110065e-05
1.0401,-3.4137746779877363,0.0,0.0,0.0,2.559534614100182e-05
1.0501,-3.4138085322341425,0.0,0.0,0.0,2.6340254922295796e-05
1.0601,-3.413842710701378,0.0,0.0,0.0,2.7099457735060605e-05
1.0701,-3.4138772133992688,0.0,0.0,0.0,2.78730891326293e-05
1.0801,-3.4139120403378644,0.0,0.0,0.0,2.8661283620599373e-05
1.0901,-3.4139471915274386,0.0,0.0,0.0,2.9464175656832813e-05
1.1001,-3.4139826669784887,0.0,0.0,0.0,3.0281899651456028e-05
1.1101,-3.414018466701737,0.0,0.0,0.0,3.111458996685991e-05
1.1201,-3.4140545907081274,0.0,0.0,0.0,3.1962380917699825e-05
1.1301,-3.4140910390088304,0.0,0.0,0.0,3.282540677089554e-05
1.1401000000000001,-3.414127811615239,0.0,0.0,0.0,3.370380174563135e-05
1.1501000000000001,-3.414164908538971,0.0,0.0,0.0,3.459770001335597e-05
1.1601,-3.4142023297918676,0.0,0.0,0.0,3.5507235697782544e-05
1.1701,-3.4142400753859934,0.0,0.0,0.0,3.6432542874888766e-05
1.1801,-3.4142781453336384,0.0,0.0,0.0,3.737375557291672e-05
1.1901,-3.414316539647315,0.0,0.0,0.0,3.833100777237295e-05
1.2001,-3.414355258339761,0.0,0.0,0.0,3.930443340602846e-05
1.2101,-3.4143943014239375,0.0,0.0,0.0,4.029416635891875e-05
1.2201,-3.414433668913029,0.0,0.0,0.0,4.1300340468343745e-05
1.2301,-3.4144733608204447,0.0,0.0,0.0,4.2323089523867846e-05
1.2401,-3.4145133771598175,0.0,0.0,0.0,4.336254726731987e-05
1.2501,-3.4145537179450045,0.0,0.0,0.0,4.441884739279316e-05
1.2601,-3.414594383190086,0.0,0.0,0.0,4.549212354664547e-05
1.2701,-3.4146353729093675,0.0,0.0,0.0,4.658250932749904e-05
1.2801,-3.4146766871173777,0.0,0.0,0.0,4.769013828624054e-05
1.2901,-3.414718325828869,0.0,0.0,0.0,4.881514392602114e-05
1.3001,-3.414760289058818,0.0,0.0,0.0,4.9957659702256394e-05
1.3101,-3.4148025768224257,0.0,0.0,0.0,5.111781902262641e-05
1.3201,-3.414845189135116,0.0,0.0,0.0,5.22957552470757e-05
1.3301,-3.414888126012539,0.0,0.0,0.0,5.349160168781323e-05
1.3401,-3.4149313874705656,0.0,0.0,0.0,5.4705491609312475e-05
1.3501,-3.414974973525293,0.0,0.0,0.0,5.593755822831126e-05
1.3601,-3.415018884193041,0.0,0.0,0.0,5.718793471381205e-05
1.3701,-3.415063119490355,0.0,0.0,0.0,5.845675418708155e-05
1.3801,-3.4151076794340023,0.0,0.0,0.0,5.974414972165108e-05
1.3901000000000001,-3.415152564040976,0.0,0.0,0.0,6.105025434331641e-05
1.4001000000000001,-3.415197773328492,0.0,0.0,0.0,6.237520103013766e-05
1.4101,-3.4152433073139905,0.0,0.0,0.0,6.371912271243948e-05
1.4201,-3.415289166015136,0.0,0.0,0.0,6.50821522728111e-05
1.4301,-3.4153353494498155,0.0,0.0,0.0,6.646442254610595e-05
1.4401,-3.4153818576361425,0.0,0.0,0.0,6.786606631944216e-05
1.4501,-3.4154286905924525,0.0,0.0,0.0,6.928721633220213e-05
1.4601,-3.4154758483373047,0.0,0.0,0.0,7.072800527603283e-05
1.4701,-3.415523330889484,0.0,0.0,0.0,7.218856579484573e-05
1.4801,-3.4155711382679983,0.0,0.0,0.0,7.366903048481659e-05
1.4901,-3.415619270492079,0.0,0.0,0.0,7.516953189438578e-05
1.5001,-3.4156677275811824,0.0,0.0,0.0,7.669020252425809e-05
1.5101,-3.4157165095549873,0.0,0.0,0.0,7.823117482740275e-05
1.5201,-3.4157656164333985,0.0,0.0,0.0,7.979258120905346e-05
1.5301,-3.4158150482365435,0.0,0.0,0.0,8.137455402670836e-05
1.5401,-3.415864804984773,0.0,0.0,0.0,8.297722559013006e-05
1.5501,-3.4159148866986637,0.0,0.0,0.0,8.460072816134566e-05
1.5601,-3.415965293399015,0.0,0.0,0.0,8.624519395464667e-05
1.5701,-3.41601602510685,0.0,0.0,0.0,8.79107551365891e-05
1.5801,-3.416067081843416,0.0,0.0,0.0,8.95975438259934e-05
1.5901,-3.416118463630185,0.0,0.0,0.0,9.130569209394446e-05
1.6001,-3.4161701704888516,0.0,0.0,0.0,9.303533196379167e-05
1.6101,-3.416222202441336,0.0,0.0,0.0,9.478659541114883e-05
1.6201,-3.416274559509781,0.0,0.0,0.0,9.655961436389425e-05
1.6301,-3.416327241716554,0.0,0.0,0.0,9.835452070217069e-05
1.6401000000000001,-3.4163802490842468,0.0,0.0,0.0,0.0001001714462583853
1.6501000000000001,-3.4164335816356735,0.0,0.0,0.0,0.00010201052281720975
1.6601000000000001,-3.416487239393873,0.0,0.0,0.0,0.0001038718821155802
1.6701,-3.41654122238211,0.0,0.0,0.0,0.00010575565584269715
1.6801,-3.4165955306238702,0.0,0.0,0.0,0.00010766197564002574
1.6901,-3.416650164142865,0.0,0.0,0.0,0.00010959097310129548
1.7001,-3.416705122963029,0.0,0.0,0.0,0.00011154277977250022
1.7101,-3.416760407108521,0.0,0.0,0.0,0.00011351752715189842
1.7201,-3.416816016603725,0.0,0.0,0.0,0.000115515346690013
1.7301,-3.416871951473247,0.0,0.0,0.0,0.00011753636978963116
1.7401,-3.4169282117419173,0.0,0.0,0.0,0.00011958072780580486
1.7501,-3.4169847974347913,0.0,0.0,0.0,0.00012164855204585029
1.7601,-3.4170417085771474,0.0,0.0,0.0,0.00012373997376934808
1.7701,-3.4170989451944886,0.0,0.0,0.0,0.00012585512418814346
1.7801,-3.417156507312541,0.0,0.0,0.0,0.00012799413446634608
1.7901,-3.4172143949572558,0.0,0.0,0.0,0.00013015713572033
1.8001,-3.4172726081548066,0.0,0.0,0.0,0.00013234425901873377
1.8101,-3.4173311469315926,0.0,0.0,0.0,0.00013455563538246037
1.8201,-3.417390011314236,0.0,0.0,0.0,0.00013679139578467723
1.8301,-3.417449201329583,0.0,0.0,0.0,0.00013905167115081635
1.8401,-3.4175087170047043,0.0,0.0,0.0,0.0001413365923585741
1.8501,-3.4175685583668938,0.0,0.0,0.0,0.00014364629023791125
1.8601,-3.41762872544367,0.0,0.0,0.0,0.0001459808955710532
1.8701,-3.4176892182627747,0.0,0.0,0.0,0.00014834053909248957
1.8801,-3.417750036852175,0.0,0.0,0.0,0.00015072535148897472
1.8901000000000001,-3.41781118124006,0.0,0.0,0.0,0.00015313546339952718
1.9001000000000001,-3.417872651454844,0.0,0.0,0.0,0.0001555710054154302
1.9101000000000001,-3.417934447525165,0.0,0.0,0.0,0.00015803210808023135
1.9201,-3.417996569479886,0.0,0.0,0.0,0.00016051890188974256
1.9301,-3.4180590173480914,0.0,0.0,0.0,0.00016303151729204048
1.9401,-3.4181217911590918,0.0,0.0,0.0,0.00016557008468746603
1.9501,-3.4181848909424213,0.0,0.0,0.0,0.00016813473442862462
1.9601,-3.4182483167278375,0.0,0.0,0.0,0.00017072559682038615
1.9701,-3.418312068545322,0.0,0.0,0.0,0.00017334280211988505
1.9801,-3.418376146425081,0.0,0.0,0.0,0.00017598648053651994
1.9901,-3.4184405503975435,0.0,0.0,0.0,0.00017865676223195422
2.0001,-3.4185052804933633,0.0,0.0,0.0,0.0001813537773201156
2.0101000000000004,-3.4185703367434184,0.0,0.0,0.0,0.0001840776558671962
2.0201000000000002,-3.4186357191788104,0.0,0.0,0.0,0.0001868285278916526
2.0301000000000005,-3.418701427830864,0.0,0.0,0.0,0.00018960652336420613
2.0401000000000002,-3.4187674627311293,0.0,0.0,0.0,0.000192411772207842
2.0501,-3.41883382391138,0.0,0.0,0.0,0.00019524440429781044
2.0601000000000003,-3.4189005114036126,0.0,0.0,0.0,0.000198104549461626
2.0701,-3.418967525240049,0.0,0.0,0.0,0.0002009923374790674
2.0801000000000003,-3.4190348654531344,0.0,0.0,0.0,0.00020390789808217836
2.0901,-3.4191025320755384,0.0,0.0,0.0,0.0002068513609552663
2.1001000000000003,-3.4191705251401534,0.0,0.0,0.0,0.00020982285573490383
2.1101,-3.419238844680097,0.0,0.0,0.0,0.00021282251200992756
2.1201000000000003,-3.4193074907287104,0.0,0.0,0.0,0.00021585045932143884
2.1301,-3.419376463319559,0.0,0.0,0.0,0.00021890682716280325
2.1401000000000003,-3.419445762486431,0.0,0.0,0.0,0.00022199174497965107
2.1501,-3.41951538826334,0.0,0.0,0.0,0.00022510534216987668
2.1601000000000004,-3.419585340684522,0.0,0.0,0.0,0.00022824774808363939
2.1701,-3.4196556197844394,0.0,0.0,0.0,0.00023141909202336242
2.1801000000000004,-3.419726225597776,0.0,0.0,0.0,0.00023461950324373416
2.1901,-3.419797158159441,0.0,0.0,0.0,0.00023784911095170658
2.2001000000000004,-3.419868417504567,0.0,0.0,0.0,0.00024110804430649703
2.2101,-3.419940003668511,0.0,0.0,0.0,0.0002443964324195865
2.2201000000000004,-3.420011916686853,0.0,0.0,0.0,0.00024771440435472094
2.2301,-3.420084156595398,0.0,0.0,0.0,0.0002510620891279107
2.2401000000000004,-3.4201567234301753,0.0,0.0,0.0,0.0002544396157074305
2.2501,-3.4202296172274367,0.0,0.0,0.0,0.0002578471130138193
2.2601000000000004,-3.4203028380236584,0.0,0.0,0.0,0.0002612847099198811
2.2701000000000002,-3.420376385855542,0.0,0.0,0.0,0.0002647525352506836
2.2801000000000005,-3.4204502607459157,0.0,0.0,0.0,0.00026825070586156027
2.2901000000000002,-3.420524462659761,0.0,0.0,0.0,0.00027177929574540537
2.3001000000000005,-3.420598991609942,0.0,0.0,0.0,0.0002753384277613939
2.3101000000000003,-3.4206738476171648,0.0,0.0,0.0,0.00027892823161669843
2.3201,-3.4207490307023014,0.0,0.0,0.0,0.0002825488368943157
2.3301000000000003,-3.420824540886392,0.0,0.0,0.0,0.0002862003730530661
2.3401,-3.420900378190645,0.0,0.0,0.0,0.0002898829694275933
2.3501000000000003,-3.420976542636433,0.0,0.0,0.0,0.0002935967552283653
2.3601,-3.4210530342452983,0.0,0.0,0.0,0.00029734185954167304
2.3701000000000003,-3.42112985303895,0.0,0.0,0.0,0.000301118411329632
2.3801,-3.421206999039262,0.0,0.0,0.0,0.00030492653943018055
2.3901000000000003,-3.421284472268279,0.0,0.0,0.0,0.0003087663725570815
2.4001,-3.421362272748211,0.0,0.0,0.0,0.00031263803929992075
2.4101000000000004,-3.421440400501434,0.0,0.0,0.0,0.00031654166812410844
2.4201,-3.421518855550493,0.0,0.0,0.0,0.0003204773873708778
2.4301000000000004,-3.4215976379180995,0.0,0.0,0.0,0.00032444532525728646
2.4401,-3.4216767476271324,0.0,0.0,0.0,0.000328445609876215
2.4501000000000004,-3.421756184700637,0.0,0.0,0.0,0.00033247836919636845
2.4601,-3.4218359491618267,0.0,0.0,0.0,0.0003365437310622749
2.4701000000000004,-3.421916041034081,0.0,0.0,0.0,0.0003406418231942867
2.4801,-3.4219964603409476,0.0,0.0,0.0,0.00034477277318857927
2.4901000000000004,-3.422077207106141,0.0,0.0,0.0,0.00034893670851715244
2.5001,-3.4221582813535423,0.0,0.0,0.0,0.00035313375652782904
2.5101000000000004,-3.4222396831072004,0.0,0.0,0.0,0.0003573640444442563
2.5201000000000002,-3.4223214123913315,0.0,0.0,0.0,0.0003616276993659044
2.5301000000000005,-3.422403469230318,0.0,0.0,0.0,0.00036592484826806804
2.5401000000000002,-3.4224858536487104,0.0,0.0,0.0,0.00037025561800186474
2.5501000000000005,-3.422568565671226,0.0,0.0,0.0,0.00037462013529423663
2.5601000000000003,-3.4226516053227485,0.0,0.0,0.0,0.0003790185267479487
2.5701,-3.4227349726283305,0.0,0.0,0.0,0.0003834509188415902
2.5801000000000003,-3.4228186676131904,0.0,0.0,0.0,0.00038791743792957405
2.5901,-3.422902690302714,0.0,0.0,0.0,0.00039241821024213637
2.6001000000000003,-3.4229870407224547,0.0,0.0,0.0,0.0003969533618853378
2.6101,-3.423071718898132,0.0,0.0,0.0,0.0004015230188410617
2.6201000000000003,-3.423156724855634,0.0,0.0,0.0,0.0004061273069670162
2.6301,-3.4232420586210144,0.0,0.0,0.0,0.000410766351996732
2.6401000000000003,-3.4233277202204953,0.0,0.0,0.0,0.00041544027953956467
2.6501,-3.423413709680465,0.0,0.0,0.0,0.0004201492150806924
2.6601000000000004,-3.4235000270274805,0.0,0.0,0.0,0.00042489328398111794
2.6701,-3.423586672288264,0.0,0.0,0.0,0.000429672611477667
2.6801000000000004,-3.423673645489706,0.0,0.0,0.0,0.0004344873226829898
2.6901,-3.423760946658864,0.0,0.0,0.0,0.0004393375425855594
2.7001000000000004,-3.4238485758229618,0.0,0.0,0.0,0.0004442233960496734
2.7101,-3.423936533009392,0.0,0.0,0.0,0.0004491450078154523
2.7201000000000004,-3.424024818245713,0.0,0.0,0.0,0.000454102502498841
2.7301,-3.4241134315596513,0.0,0.0,0.0,0.00045909600459160746
2.7401000000000004,-3.4242023729790994,0.0,0.0,0.0,0.00046412563846134403
2.7501,-3.4242916425321175,0.0,0.0,0.0,0.00046919152835146614
2.7601000000000004,-3.424381240246934,0.0,0.0,0.0,0.00047429379838121333
2.7701000000000002,-3.424471166151942,0.0,0.0,0.0,0.0004794325725456485
2.7801000000000005,-3.424561420275704,0.0,0.0,0.0,0.00048460797471565884
2.7901000000000002,-3.42465200264695,0.0,0.0,0.0,0.0004898201286379542
2.8001000000000005,-3.424742913294574,0.0,0.0,0.0,0.0004950691579350695
2.8101000000000003,-3.4248341522476404,0.0,0.0,0.0,0.0005003551861053621
2.8201,-3.4249257195353793,0.0,0.0,0.0,0.0005056783365230136
2.8301000000000003,-3.425017615187188,0.0,0.0,0.0,0.0005110387324380298
2.8401,-3.4251098392326313,0.0,0.0,0.0,0.0005164364969762391
2.8501000000000003,-3.425202391701441,0.0,0.0,0.0,0.0005218717531392948
2.8601,-3.425295272623516,0.0,0.0,0.0,0.0005273446238046728
2.8701000000000003,-3.425388482028922,0.0,0.0,0.0,0.0005328552317256734
2.8801,-3.425482019947893,0.0,0.0,0.0,0.0005384036995314202
2.8901000000000003,-3.425575886410829,0.0,0.0,0.0,0.0005439901497268611
2.9001,-3.425670081448297,0.0,0.0,0.0,0.0005496147046927667
2.9101000000000004,-3.4257646050910324,0.0,0.0,0.0,0.0005552774866857326
2.9201,-3.425859457369937,0.0,0.0,0.0,0.000560978617838177
2.9301000000000004,-3.425954638316079,0.0,0.0,0.0,0.0005667182201583422
2.9401,-3.4260501479606957,0.0,0.0,0.0,0.0005724964155302942
2.9501000000000004,-3.4261459863351895,0.0,0.0,0.0,0.0005783133257139231
2.9601,-3.4262421534711307,0.0,0.0,0.0,0.0005841690723449415
2.9701000000000004,-3.426338649400258,0.0,0.0,0.0,0.0005900637769348875
2.9801,-3.4264354741544745,0.0,0.0,0.0,0.000595997560871121
2.9901000000000004,-3.4265326277658534,0.0,0.0,0.0,0.0006019705454168272
3.0001,-3.4266301102666334,0.0,0.0,0.0,0.0006079828517110136
3.0101000000000004,-3.42672792168922,0.0,0.0,0.0,0.0006140346007685129
3.0201000000000002,-3.426826062066188,0.0,0.0,0.0,0.00062012591347998
3.0301000000000005,-3.426924531430276,0.0,0.0,0.0,0.0006262569106118949
3.0401000000000002,-3.427023329814393,0.0,0.0,0.0,0.0006324277128065601
3.0501000000000005,-3.4271224572516132,0.0,0.0,0.0,0.0006386384405821025
3.0601000000000003,-3.4272219137751785,0.0,0.0,0.0,0.0006448892143324722
3.0701000000000005,-3.4273216994184983,0.0,0.0,0.0,0.000651180154327444
3.0801000000000003,-3.4274218142151485,0.0,0.0,0.0,0.0006575113807126148
3.0901,-3.4275222581988727,0.0,0.0,0.0,0.0006638830135094068
