r,omega,theta,phi,rho,mass
0.0001,-3.412023005428146,3.141592653589793,0.0,0.0,0.0
0.0101,-3.412023170476639,3.141593652602476,0.0,0.0,2.347539922660872e-11
0.0201,-3.4120236592636224,3.1415936578189703,0.0,0.0,1.850278248148722e-10
0.0301,-3.4120244717512844,3.1415936594840694,0.0,0.0,6.213668522843611e-10
0.040100000000000004,-3.412025607939743,3.1415936604882653,0.0,0.0,1.4692013489137754e-09
0.050100000000000006,-3.4120270678293423,3.1415936609584603,0.0,0.0,2.8652391310976686e-09
0.0601,-3.412028851420594,3.1415936611670188,0.0,0.0,4.946186437657526e-09
0.07010000000000001,-3.412030958714301,3.1415936614228293,0.0,0.0,7.848747006711985e-09
0.0801,-3.412033389711635,3.1415936616722453,0.0,0.0,1.1709621109139512e-08
0.0901,-3.412036144413173,3.141593661884189,0.0,0.0,1.6665511594998682e-08
0.10010000000000001,-3.412039222819597,3.1415936620557248,0.0,0.0,2.28531174333987e-08
0.1101,-3.4120426249317846,3.141593662185997,0.0,0.0,3.04091329727812e-08
0.1201,-3.4120463507508063,3.1415936622762266,0.0,0.0,3.947024794092027e-08
0.1301,-3.412050400277927,3.1415936623297136,0.0,0.0,5.0173147444922425e-08
0.1401,-3.4120547735146074,3.141593662351836,0.0,0.0,6.265451197122665e-08
0.15009999999999998,-3.4120594704625007,3.141593662350051,0.0,0.0,7.705101738560434e-08
0.1601,-3.4120644911234552,3.1415936623338925,0.0,0.0,9.349933493315935e-08
0.1701,-3.4120698354995147,3.141593662314974,0.0,0.0,1.1213613123832804e-07
0.18009999999999998,-3.412075503592915,3.1415936623069864,0.0,0.0,1.33098068304879e-07
0.1901,-3.4120814954060887,3.141593662325699,0.0,0.0,1.5652180351591356e-07
0.2001,-3.412087810947606,3.141593662366757,0.0,0.0,1.8254383290085355e-07
0.21009999999999998,-3.4120944502264634,3.14159366240803,0.0,0.0,2.1130064634824966e-07
0.2201,-3.4121014132430907,3.141593662449134,0.0,0.0,2.4292895515256094e-07
0.2301,-3.412108699998086,3.141593662489813,0.0,0.0,2.7756545576777e-07
0.24009999999999998,-3.4121163104922565,3.1415936625298273,0.0,0.0,3.1534682881125984e-07
0.2501,-3.412124244726616,3.141593662568951,0.0,0.0,3.564097390638147e-07
0.2601,-3.412132502702384,3.1415936626069754,0.0,0.0,4.0089083546961904e-07
0.2701,-3.41214108442099,3.141593662643705,0.0,0.0,4.4892675113625796e-07
0.2801,-3.4121499898840684,3.14159366267896,0.0,0.0,5.006541033347179e-07
0.29009999999999997,-3.412159219093462,3.1415936627125762,0.0,0.0,5.562094934993849e-07
0.3001,-3.4121687720512206,3.141593662744403,0.0,0.0,6.157295072280468e-07
0.3101,-3.4121786487596015,3.1415936627743077,0.0,0.0,6.793507142818915e-07
0.3201,-3.4121888492210686,3.1415936628021695,0.0,0.0,7.472096685855075e-07
0.3301,-3.412199373438293,3.1415936628278844,0.0,0.0,8.194429082268847e-07
0.3401,-3.412210221414154,3.141593662851364,0.0,0.0,8.961869554574125e-07
0.3501,-3.4122213931517376,3.141593662872533,0.0,0.0,9.775783166918822e-07
0.3601,-3.4122328886543363,3.141593662891334,0.0,0.0,1.0637534825084844e-06
0.3701,-3.4122447079254514,3.1415936629077224,0.0,0.0,1.154848927648812e-06
0.3801,-3.41225685096879,3.1415936629216694,0.0,0.0,1.2510011110178579e-06
0.3901,-3.412269317788267,3.141593662933161,0.0,0.0,1.352346475684015e-06
0.4001,-3.4122821083880046,3.1415936629421997,0.0,0.0,1.4590214488790777e-06
0.4101,-3.412295222772332,3.1415936629488015,0.0,0.0,1.5711624419982411e-06
0.4201,-3.412308660945786,3.141593662952998,0.0,0.0,1.6889058506000992e-06
0.4301,-3.412322422913111,3.141593662954836,0.0,0.0,1.8123880544066504e-06
0.4401,-3.4123365086792568,3.1415936629543775,0.0,0.0,1.9417454173032906e-06
0.4501,-3.4123509182493823,3.1415936629516996,0.0,0.0,2.0771142873388172e-06
0.4601,-3.4123656516288534,3.141593662946894,0.0,0.0,2.2186309967254287e-06
0.4701,-3.4123807088232425,3.1415936629400685,0.0,0.0,2.3664318618387233e-06
0.48009999999999997,-3.4123960898383294,3.141593662931345,0.0,0.0,2.520653183217702e-06
0.4901,-3.4124117946801023,3.1415936629208607,0.0,0.0,2.681431245564764e-06
0.5001,-3.4124278233547543,3.141593662908768,0.0,0.0,2.8489023177457106e-06
0.5101,-3.4124441758686883,3.1415936628952355,0.0,0.0,3.0232026527897435e-06
0.5201,-3.4124608522285125,3.1415936628804446,0.0,0.0,3.2044684878894643e-06
0.5301,-3.412477852441043,3.1415936628645937,0.0,0.0,3.392836044400879e-06
0.5401,-3.4124951765133043,3.141593662847896,0.0,0.0,3.5884415278433867e-06
0.5501,-3.412512824452526,3.1415936628305787,0.0,0.0,3.791421127899794e-06
0.5601,-3.412530796266146,3.1415936628128858,0.0,0.0,4.001911018416307e-06
0.5701,-3.41254909196181,3.141593662795075,0.0,0.0,4.2200473574025295e-06
0.5801,-3.41256771154737,3.1415936627774195,0.0,0.0,4.445966287031468e-06
0.5901,-3.412586655030886,3.1415936627602083,0.0,0.0,4.679803933639532e-06
0.6001,-3.4126059224206244,3.141593662743744,0.0,0.0,4.921696407726527e-06
0.6101,-3.412625513725059,3.141593662728346,0.0,0.0,5.171779803955663e-06
0.6201,-3.4126454289528723,3.1415936627143473,0.0,0.0,5.430190201153548e-06
0.6301,-3.4126656681129517,3.1415936627020975,0.0,0.0,5.697063662310192e-06
0.6401,-3.4126862312143933,3.14159366269196,0.0,0.0,5.972536234579007e-06
0.6501,-3.4127071182665,3.141593662684314,0.0,0.0,6.256743949276801e-06
0.6601,-3.4127283292787824,3.1415936626795533,0.0,0.0,6.549822821883789e-06
0.6701,-3.4127498642609577,3.1415936626780874,0.0,0.0,6.8519088520435815e-06
0.6801,-3.4127717232229506,3.1415936626803407,0.0,0.0,7.163138023563193e-06
0.6901,-3.412793906200438,3.141593662686158,0.0,0.0,7.483643775720136e-06
0.7001000000000001,-3.412816413342374,3.141593662692499,0.0,0.0,7.813548380080375e-06
0.7101,-3.4128392446717117,3.141593662698864,0.0,0.0,8.152986625790953e-06
0.7201,-3.412862400189191,3.141593662705251,0.0,0.0,8.502095468762122e-06
0.7301,-3.412885879895758,3.141593662711655,0.0,0.0,8.861011807734497e-06
0.7401,-3.412909683792561,3.141593662718073,0.0,0.0,9.229872484279063e-06
0.7501,-3.412933811880954,3.141593662724502,0.0,0.0,9.608814282797176e-06
0.7601,-3.412958264162493,3.141593662730937,0.0,0.0,9.997973930520556e-06
0.7701,-3.412983040638941,3.1415936627373755,0.0,0.0,1.0397488097511297e-05
0.7801,-3.413008141312264,3.1415936627438144,0.0,0.0,1.0807493396661858e-05
0.7901,-3.413033566184631,3.14159366275025,0.0,0.0,1.1228126383695072e-05
0.8001,-3.4130593152584168,3.141593662756679,0.0,0.0,1.1659523557164131e-05
0.8101,-3.4130853885362,3.1415936627630985,0.0,0.0,1.2101821358452606e-05
0.8201,-3.4131117860207625,3.141593662769505,0.0,0.0,1.255515617177443e-05
0.8301000000000001,-3.4131385077150913,3.141593662775895,0.0,0.0,1.301966432417391e-05
0.8401,-3.4131655536223775,3.1415936627822663,0.0,0.0,1.3495482085525708e-05
0.8501,-3.4131929237460157,3.141593662788615,0.0,0.0,1.3982745668534884e-05
0.8601,-3.413220618089606,3.141593662794939,0.0,0.0,1.4481591228736839e-05
0.8701,-3.413248636656951,3.1415936628012346,0.0,0.0,1.4992154864497353e-05
0.8801,-3.413276979452059,3.1415936628074994,0.0,0.0,1.551457261701257e-05
0.8901,-3.4133056464791416,3.1415936628137304,0.0,0.0,1.604898047030901e-05
0.9001,-3.4133346377426146,3.1415936628199246,0.0,0.0,1.659551435124356e-05
0.9101,-3.4133639532470985,3.14159366282608,0.0,0.0,1.715431012950347e-05
0.9201,-3.4133935929974175,3.1415936628321934,0.0,0.0,1.772550361760637e-05
0.9301,-3.4134235569985996,3.141593662838262,0.0,0.0,1.830923057090024e-05
0.9401,-3.4134538452558787,3.1415936628442838,0.0,0.0,1.8905626687563452e-05
0.9501000000000001,-3.4134844577746906,3.141593662850256,0.0,0.0,1.9514827608604728e-05
0.9601,-3.413515394560677,3.1415936628561756,0.0,0.0,2.0136968917863163e-05
0.9701,-3.4135466556196827,3.141593662862041,0.0,0.0,2.0772186142008234e-05
0.9801,-3.4135782409577575,3.14159366286785,0.0,0.0,2.1420614750539768e-05
0.9901,-3.413610150581155,3.1415936628735994,0.0,0.0,2.2082390155787973e-05
1.0001,-3.4136423844963324,3.1415936628792873,0.0,0.0,2.2757647712913424e-05
1.0101,-3.4136749427099526,3.1415936628849117,0.0,0.0,2.344652271990706e-05
1.0201,-3.4137078252288813,3.1415936628904704,0.0,0.0,2.4149150417590183e-05
1.0301,-3.413741032060189,3.141593662895961,0.0,0.0,2.4865665989614487e-05
1.0401,-3.41377456321115,3.1415936629013816,0.0,0.0,2.5596204562462005e-05
1.0501,-3.413808418689243,3.1415936629067303,0.0,0.0,2.634090120544516e-05
1.0601,-3.4138425985021508,3.141593662912005,0.0,0.0,2.7099890930706742e-05
1.0701,-3.4138771026577603,3.141593662917204,0.0,0.0,2.7873308693219904e-05
1.0801,-3.4139119311641637,3.1415936629223253,0.0,0.0,2.866128939078816e-05
1.0901,-3.4139470840296555,3.141593662927367,0.0,0.0,2.94639678640454e-05
1.1001,-3.4139825612627352,3.1415936629323276,0.0,0.0,3.0281478896455905e-05
1.1101,-3.4140183628721075,3.1415936629372054,0.0,0.0,3.111395721431428e-05
1.1201,-3.4140544888666793,3.1415936629419985,0.0,0.0,3.1961537486745535e-05
1.1301,-3.4140909392555634,3.1415936629467054,0.0,0.0,3.282435432570503e-05
1.1401000000000001,-3.414127714048076,3.1415936629513244,0.0,0.0,3.370254228597851e-05
1.1501000000000001,-3.414164813253737,3.141593662955854,0.0,0.0,3.4596235865182066e-05
1.1601,-3.4142022368822724,3.141593662960293,0.0,0.0,3.550556950376217e-05
1.1701,-3.41423998494361,3.1415936629646404,0.0,0.0,3.643067758499568e-05
1.1801,-3.414278057447883,3.141593662968894,0.0,0.0,3.737169443498979e-05
1.1901,-3.4143164544054283,3.141593662973053,0.0,0.0,3.8328754322682106e-05
1.2001,-3.414355175826788,3.141593662977116,0.0,0.0,3.930199145984053e-05
1.2101,-3.4143942217227075,3.141593662981082,0.0,0.0,4.029154000106342e-05
1.2201,-3.414433592104136,3.1415936629849495,0.0,0.0,4.129753404377945e-05
1.2301,-3.4144732869822283,3.1415936629887176,0.0,0.0,4.232010762824765e-05
1.2401,-3.4145133063683417,3.1415936629923853,0.0,0.0,4.335939473755747e-05
1.2501,-3.4145536502740392,3.1415936629959518,0.0,0.0,4.441552929762869e-05
1.2601,-3.4145943187110865,3.1415936629994157,0.0,0.0,4.548864517721148e-05
1.2701,-3.414635311691455,3.1415936630027765,0.0,0.0,4.6578876187886344e-05
1.2801,-3.414676629227319,3.141593663006033,0.0,0.0,4.768635608406423e-05
1.2901,-3.414718271331058,3.141593663009185,0.0,0.0,4.881121856298634e-05
1.3001,-3.414760238015255,3.141593663012231,0.0,0.0,4.995359726472435e-05
1.3101,-3.4148025292926967,3.1415936630151715,0.0,0.0,5.1113625772180246e-05
1.3201,-3.414845145176376,3.1415936630180044,0.0,0.0,5.229143761108641e-05
1.3301,-3.4148880856794874,3.14159366302073,0.0,0.0,5.348716625000559e-05
1.3401,-3.4149313508154315,3.1415936630233476,0.0,0.0,5.4700945100330876e-05
1.3501,-3.414974940597812,3.1415936630258567,0.0,0.0,5.5932907516285765e-05
1.3601,-3.4150188550404375,3.141593663028257,0.0,0.0,5.71831867949241e-05
1.3701,-3.41506309415732,3.141593663030548,0.0,0.0,5.8451916176130085e-05
1.3801,-3.415107657962677,3.1415936630327295,0.0,0.0,5.9739228842618315e-05
1.3901000000000001,-3.4151525464709285,3.1415936630348007,0.0,0.0,6.104525791993375e-05
1.4001000000000001,-3.4151977596967,3.141593663036762,0.0,0.0,6.23701364764517e-05
1.4101,-3.41524329765482,3.1415936630386128,0.0,0.0,6.371399752337783e-05
1.4201,-3.415289160360323,3.1415936630403536,0.0,0.0,6.507697401474826e-05
1.4301,-3.415335347828445,3.141593663041984,0.0,0.0,6.645919884742939e-05
1.4401,-3.415381860074629,3.141593663043503,0.0,0.0,6.786080486111801e-05
1.4501,-3.4154286971145202,3.141593663044912,0.0,0.0,6.928192483834133e-05
1.4601,-3.415475858963969,3.141593663046211,0.0,0.0,7.07226915044568e-05
1.4701,-3.4155233456390297,3.1415936630473995,0.0,0.0,7.21832375276524e-05
1.4801,-3.4155711571559606,3.1415936630484778,0.0,0.0,7.366369551894635e-05
1.4901,-3.415619293531224,3.1415936630494463,0.0,0.0,7.516419803218734e-05
1.5001,-3.4156677547814875,3.141593663050305,0.0,0.0,7.668487756405437e-05
1.5101,-3.415716540923621,3.141593663051055,0.0,0.0,7.822586655405676e-05
1.5201,-3.415765651974701,3.141593663051696,0.0,0.0,7.978729738453432e-05
1.5301,-3.4158150879520055,3.1415936630522285,0.0,0.0,8.136930238065713e-05
1.5401,-3.4158648488730186,3.141593663052653,0.0,0.0,8.29720138104257e-05
1.5501,-3.415914934755428,3.14159366305297,0.0,0.0,8.459556388467088e-05
1.5601,-3.4159653456171255,3.1415936630531807,0.0,0.0,8.624008475705389e-05
1.5701,-3.4160160814762075,3.1415936630532846,0.0,0.0,8.790570852406631e-05
1.5801,-3.4160671423509736,3.1415936630532837,0.0,0.0,8.95925672250301e-05
1.5901,-3.4161185282599287,3.1415936630531776,0.0,0.0,9.130079284209762e-05
1.6001,-3.416170239221781,3.141593663052968,0.0,0.0,9.303051730025154e-05
1.6101,-3.4162222752554436,3.141593663052655,0.0,0.0,9.478187246730492e-05
1.6201,-3.4162746363800336,3.14159366305224,0.0,0.0,9.65549901539012e-05
1.6301,-3.4163273226148716,3.1415936630517236,0.0,0.0,9.835000211351419e-05
1.6401000000000001,-3.4163803339794834,3.141593663051107,0.0,0.0,0.00010016704004244805
1.6501000000000001,-3.4164336704935985,3.1415936630503913,0.0,0.0,0.00010200623557983736
1.6601000000000001,-3.41648733217715,3.1415936630495778,0.0,0.0,0.00010386772030764697
1.6701,-3.4165413190502765,3.141593663048667,0.0,0.0,0.00010575162575067214
1.6801,-3.416595631133319,3.1415936630476606,0.0,0.0,0.00010765808337653863
1.6901,-3.416650268446825,3.1415936630465593,0.0,0.0,0.00010958722459570238
1.7001,-3.416705231011544,3.1415936630453656,0.0,0.0,0.00011153918076144976
1.7101,-3.416760518848431,3.1415936630440795,0.0,0.0,0.00011351408316989762
1.7201,-3.4168161319786443,3.1415936630427033,0.0,0.0,0.00011551206305999294
1.7301,-3.4168720704235476,3.1415936630412378,0.0,0.0,0.00011753325161351336
1.7401,-3.416928334204707,3.141593663039685,0.0,0.0,0.00011957777995506654
1.7501,-3.416984923343895,3.141593663038046,0.0,0.0,0.00012164577915209094
1.7601,-3.417041837863086,3.1415936630363235,0.0,0.0,0.00012373738021485497
1.7701,-3.41709907778446,3.141593663034518,0.0,0.0,0.00012585271409645777
1.7801,-3.417156643130401,3.1415936630326313,0.0,0.0,0.00012799191169282848
1.7901,-3.417214533923497,3.141593663030666,0.0,0.0,0.00013015510384272697
1.8001,-3.4172727501865396,3.1415936630286225,0.0,0.0,0.00013234242132774312
1.8101,-3.417331291942526,3.1415936630265042,0.0,0.0,0.00013455399487229767
1.8201,-3.4173901592146567,3.141593663024312,0.0,0.0,0.0001367899551436411
1.8301,-3.417449352026336,3.1415936630220482,0.0,0.0,0.0001390504327518549
1.8401,-3.4175088704011727,3.141593663019715,0.0,0.0,0.0001413355582498503
1.8501,-3.4175687143629805,3.1415936630173142,0.0,0.0,0.0001436454621333695
1.8601,-3.4176288839357762,3.141593663014848,0.0,0.0,0.00014598027484098453
1.8701,-3.417689379143781,3.1415936630123187,0.0,0.0,0.00014834012675409824
1.8801,-3.4177502000114215,3.1415936630097283,0.0,0.0,0.00015072514819694356
1.8901000000000001,-3.417811346563327,3.141593663007079,0.0,0.0,0.000153135469436584
1.9001000000000001,-3.417872818824331,3.1415936630043735,0.0,0.0,0.00015557122068291307
1.9101000000000001,-3.417934616819472,3.141593663001614,0.0,0.0,0.00015803253208865518
1.9201,-3.417996740573993,3.1415936629988024,0.0,0.0,0.0001605195337493646
1.9301,-3.4180591901133397,3.141593662995942,0.0,0.0,0.00016303235570342626
1.9401,-3.418121965463163,3.141593662993035,0.0,0.0,0.00016557112793205562
1.9501,-3.418185066649318,3.1415936629900836,0.0,0.0,0.0001681359803592979
1.9601,-3.4182484936978637,3.1415936629870913,0.0,0.0,0.00017072704285202937
1.9701,-3.418312246635063,3.14159366298406,0.0,0.0,0.0001733444452199562
1.9801,-3.418376325487384,3.1415936629809926,0.0,0.0,0.00017598831721561524
1.9901,-3.418440730281498,3.141593662977892,0.0,0.0,0.0001786587885343734
2.0001,-3.41850546104428,3.1415936629747607,0.0,0.0,0.00018135598881442836
2.0101000000000004,-3.4185705178028116,3.1415936629716024,0.0,0.0,0.00018408004763680776
2.0201000000000002,-3.4186359005843756,3.141593662968419,0.0,0.0,0.00018683109452536964
2.0301000000000005,-3.4187016094164613,3.1415936629652146,0.0,0.0,0.00018960925894680294
2.0401000000000002,-3.4187676443267603,3.141593662961991,0.0,0.0,0.00019241467031062622
2.0501,-3.41883400534317,3.141593662958752,0.0,0.0,0.00019524745796918887
2.0601000000000003,-3.4189006924937906,3.141593662955501,0.0,0.0,0.0001981077512176708
2.0701,-3.4189677058069274,3.1415936629522405,0.0,0.0,0.00020099567929408171
2.0801000000000003,-3.4190350453110905,3.1415936629489742,0.0,0.0,0.0002039113713792622
2.0901,-3.419102711034992,3.1415936629457053,0.0,0.0,0.0002068549565968829
2.1001000000000003,-3.41917070300755,3.1415936629424372,0.0,0.0,0.0002098265640134451
2.1101,-3.4192390212578867,3.141593662939173,0.0,0.0,0.00021282632263828005
2.1201000000000003,-3.4193076658153276,3.1415936629359162,0.0,0.0,0.00021585436142355
2.1301,-3.419376636709403,3.141593662932671,0.0,0.0,0.0002189108092642468
2.1401000000000003,-3.419445933969847,3.1415936629294396,0.0,0.0,0.00022199579499819337
2.1501,-3.4195155576265983,3.1415936629262267,0.0,0.0,0.00022510944740604237
2.1601000000000004,-3.4195855077097996,3.1415936629230354,0.0,0.0,0.00022825189521127748
2.1701,-3.4196557842497977,3.14159366291987,0.0,0.0,0.00023142326708021216
2.1801000000000004,-3.419726387277143,3.1415936629167334,0.0,0.0,0.00023462369162199066
2.1901,-3.4197973168225917,3.14159366291363,0.0,0.0,0.00023785329738858728
2.2001000000000004,-3.4198685729171032,3.1415936629105636,0.0,0.0,0.0002411122128748071
2.2101,-3.4199401555918403,3.141593662907538,0.0,0.0,0.00024440056651828495
2.2201000000000004,-3.4200120648781707,3.141593662904557,0.0,0.0,0.0002477184866994867
2.2301,-3.4200843008076673,3.141593662901625,0.0,0.0,0.0002510661017417081
2.2401000000000004,-3.4201568634121053,3.1415936628987455,0.0,0.0,0.0002544435399110755
2.2501,-3.4202297527234657,3.141593662895923,0.0,0.0,0.0002578509294165455
2.2601000000000004,-3.4203029687739326,3.1415936628931616,0.0,0.0,0.0002612883984099054
2.2701000000000002,-3.420376511595894,3.141593662890465,0.0,0.0,0.0002647560749857722
2.2801000000000005,-3.4204503812219444,3.1415936628878383,0.0,0.0,0.0002682540871815941
2.2901000000000002,-3.4205245776848794,3.1415936628852856,0.0,0.0,0.00027178256297764885
2.3001000000000005,-3.4205991010177,3.1415936628828107,0.0,0.0,0.0002753416302970452
2.3101000000000003,-3.420673951253613,3.1415936628804184,0.0,0.0,0.00027893141700572184
2.3201,-3.420749128426027,3.1415936628781136,0.0,0.0,0.0002825520509124482
2.3301000000000003,-3.420824632568556,3.1415936628759,0.0,0.0,0.0002862036597688238
2.3401,-3.420900463715017,3.1415936628737824,0.0,0.0,0.00028988637126927866
2.3501000000000003,-3.4209766218994333,3.141593662871766,0.0,0.0,0.00029360031305107327
2.3601,-3.421053107156031,3.1415936628698544,0.0,0.0,0.00029734561269429793
2.3701000000000003,-3.42112991951924,3.141593662868053,0.0,0.0,0.00030112239772187423
2.3801,-3.421207059023695,3.141593662866367,0.0,0.0,0.0003049307955995533
2.3901000000000003,-3.4212845257042357,3.1415936628648002,0.0,0.0,0.00030877093373591713
2.4001,-3.421362319595904,3.141593662863358,0.0,0.0,0.00031264293948237776
2.4101000000000004,-3.4214404407339476,3.141593662862045,0.0,0.0,0.0003165469401331781
2.4201,-3.4215188891538175,3.141593662860867,0.0,0.0,0.00032048306292539047
2.4301000000000004,-3.42159766489117,3.141593662859828,0.0,0.0,0.0003244514350389188
2.4401,-3.4216767679818636,3.1415936628589343,0.0,0.0,0.0003284521835964964
2.4501000000000004,-3.421756198461963,3.1415936628581895,0.0,0.0,0.00033248543566368757
2.4601,-3.4218359563677367,3.1415936628576,0.0,0.0,0.0003365513182488862
2.4701000000000004,-3.4219160417356562,3.14159366285717,0.0,0.0,0.0003406499583033178
2.4801,-3.421996454602398,3.1415936628569057,0.0,0.0,0.00034478148272103687
2.4901000000000004,-3.4220771950048428,3.141593662856812,0.0,0.0,0.00034894601833892943
2.5001,-3.422158262980075,3.141593662856894,0.0,0.0,0.000353143691936711
2.5101000000000004,-3.4222396585653847,3.141593662857158,0.0,0.0,0.0003573746302369281
2.5201000000000002,-3.4223213817982643,3.141593662857608,0.0,0.0,0.0003616389599049569
2.5301000000000005,-3.422403432716411,3.1415936628582513,0.0,0.0,0.00036593680754900507
2.5401000000000002,-3.4224858113577263,3.1415936628590924,0.0,0.0,0.0003702682997201094
2.5501000000000005,-3.4225685177585183,3.14159366286009,0.0,0.0,0.00037463354550749115
